#EXPORTTYPE:                 ,DATA ALL                                                      
#FILE:                       ,PYRO_MDF_30_700_N2_50_Kmin_recal_01.ngb-ds3                   
#FORMAT:                     ,NETZSCH5                                                      
#FTYPE:                      ,ANSI                                                          
#IDENTITY:                   ,pyro_30_700_N2_50Kmin_MDF_01                                  
#DECIMAL:                    ,POINT                                                         
#SEPARATOR:                  ,COMMA                                                         
#MTYPE:                      ,DSC                                                           
#INSTRUMENT:                 ,NETZSCH STA 449F3                                             
#PROJECT:                    ,pyroboard                                                     
#DATE/TIME:                  ,10.02.2021 10:07:28 (UTC+1)                                   
#CORR. FILE:                 ,Correction for method PYROBOARD_30_700_N2_50Kmin_Recal_cooling
#TEMPCAL:                    ,06-01-2021 10:01                                              
#SENSITIVITY:                ,06-01-2021 10:22                                              
#LABORATORY:                 ,TUPO                                                          
#OPERATOR:                   ,LH                                                            
#REMARK:                     ,                                                              
#SAMPLE:                     ,pyro_30_700_N2_50Kmin_MDF_01                                  
#SAMPLE MASS /mg:            ,10.1531                                                       
#MATERIAL:                   ,MDF                                                           
#REFERENCE:                  ,-----                                                         
#REFERENCE MASS /mg:         ,0                                                             
#TYPE OF CRUCIBLE:           ,Al2O3 85 µl, open                                             
#SAMPLE CRUCIBLE MASS /mg:   ,131.1794                                                      
#REFERENCE CRUCIBLE MASS /mg:,141.57                                                        
#DSC RANGE /µV:              ,5000                                                          
#TG RANGE /mg:               ,35000                                                         
#TAU-R:                      ,---                                                           
#CORR. CODE:                 ,020                                                           
#EXO:                        ,-1                                                            
#RANGE:                      ,30°C/50.0(K/min)/700°C                                        
#SEGMENT:                    ,S2/4                                                          
#SEG. 2:                     ,30°C/50.0(K/min)/700°C                                        

##Temp./°C,Time/min,DSC/(mW/mg),Mass/%,Gas Flow(purge2)/(ml/min),Gas Flow(protective)/(ml/min),Sensit./(uV/mW)
 30.04200, 4.99083, 2.410082e-03, 99.97587,50.00000,20.00000,5.70573
 30.03700, 5.00083, 2.410074e-03, 99.97587,50.00000,20.00000,5.70575
 30.03800, 5.01083, 2.423245e-03, 99.97587,50.00000,20.00000,5.70574
 30.03600, 5.02083, 2.410072e-03, 99.97587,50.00000,20.00000,5.70575
 30.03700, 5.03083, 2.410074e-03, 99.97587,50.00000,20.00000,5.70575
 30.03800, 5.04083, 2.410076e-03, 99.97577,50.00000,20.00000,5.70574
 30.03800, 5.05083, 2.462755e-03, 99.97587,50.00000,20.00000,5.70574
 30.03800, 5.06083, 2.449585e-03, 99.97587,50.00000,20.00000,5.70574
 30.03500, 5.07083, 2.410071e-03, 99.97587,50.00000,20.00000,5.70576
 30.03800, 5.08083, 2.410076e-03, 99.97587,50.00000,20.00000,5.70574
 30.03700, 5.09083, 2.475923e-03, 99.97587,50.00000,20.00000,5.70575
 30.03800, 5.10083, 2.541774e-03, 99.97587,50.00000,20.00000,5.70574
 30.03700, 5.11083, 2.607621e-03, 99.98247,50.00000,20.00000,5.70575
 30.04000, 5.12083, 2.620796e-03, 99.99123,50.00000,20.00000,5.70574
 30.04200, 5.13083, 2.660309e-03, 99.98129,50.00000,20.00000,5.70573
 30.04500, 5.14083, 2.699824e-03, 99.98897,50.00000,20.00000,5.70572
 30.04900, 5.15083, 2.713002e-03, 99.99448,50.00000,20.00000,5.70570
 30.04800, 5.16083, 2.765680e-03, 99.99123,50.00000,20.00000,5.70570
 30.05200, 5.17083, 2.752517e-03, 99.99783,50.00000,20.00000,5.70569
 30.05600, 5.18083, 2.818375e-03,100.00227,50.00000,20.00000,5.70567
 30.06200, 5.19083, 2.923746e-03, 99.99892,50.00000,20.00000,5.70565
 30.06800, 5.20083, 2.936928e-03,100.00768,50.00000,20.00000,5.70563
 30.07300, 5.21083, 3.002789e-03,100.00768,50.00000,20.00000,5.70561
 30.07800, 5.22083, 2.989629e-03,100.00227,50.00000,20.00000,5.70559
 30.08900, 5.23083, 2.950140e-03,100.01103,50.00000,20.00000,5.70555
 30.09700, 5.24083, 2.989667e-03,100.00000,50.00000,20.00000,5.70552
 30.10700, 5.25083, 3.016029e-03,100.00335,50.00000,20.00000,5.70548
 30.11900, 5.26083, 2.950201e-03,100.00118,50.00000,20.00000,5.70543
 30.13300, 5.27083, 2.897546e-03, 99.99892,50.00000,20.00000,5.70538
 30.14600, 5.28083, 3.029279e-03, 99.99892,50.00000,20.00000,5.70533
 30.16200, 5.29083, 3.081996e-03,100.00118,50.00000,20.00000,5.70526
 30.17900, 5.30083, 3.068860e-03,100.00443,50.00000,20.00000,5.70520
 30.19400, 5.31083, 3.187433e-03,100.00443,50.00000,20.00000,5.70514
 30.21800, 5.32083, 3.226998e-03,100.00335,50.00000,20.00000,5.70505
 30.23800, 5.33083, 3.200699e-03,100.00227,50.00000,20.00000,5.70497
 30.26100, 5.34083, 3.292951e-03,100.00227,50.00000,20.00000,5.70488
 30.28600, 5.35083, 3.345695e-03,100.00227,50.00000,20.00000,5.70479
 30.30800, 5.36083, 3.569673e-03,100.00443,50.00000,20.00000,5.70470
 30.33900, 5.37083, 3.622438e-03,100.00670,50.00000,20.00000,5.70458
 30.36800, 5.38083, 3.754236e-03,100.00660,50.00000,20.00000,5.70447
 30.40200, 5.39083, 3.991438e-03,100.00217,50.00000,20.00000,5.70434
 30.43900, 5.40083, 4.149619e-03, 99.99458,50.00000,20.00000,5.70419
 30.47500, 5.41083, 4.505411e-03, 99.98897,50.00000,20.00000,5.70405
 30.51400, 5.42083, 4.742663e-03, 99.98572,50.00000,20.00000,5.70390
 30.55800, 5.43083, 4.966770e-03, 99.98464,50.00000,20.00000,5.70373
 30.60400, 5.44083, 5.230422e-03, 99.98907,50.00000,20.00000,5.70356
 30.64400, 5.45083, 5.612646e-03, 99.99567,50.00000,20.00000,5.70340
 30.69900, 5.46083, 6.100357e-03, 99.99902,50.00000,20.00000,5.70319
 30.75100, 5.47083, 6.535386e-03,100.00227,50.00000,20.00000,5.70299
 30.80300, 5.48083, 7.023152e-03,100.00443,50.00000,20.00000,5.70279
 30.86400, 5.49083, 7.563707e-03,100.00552,50.00000,20.00000,5.70255
 30.92600, 5.50083, 8.012068e-03,100.00325,50.00000,20.00000,5.70231
 30.98800, 5.51083, 8.565894e-03,100.00010,50.00000,20.00000,5.70207
 31.05500, 5.52083, 9.291123e-03, 99.99783,50.00000,20.00000,5.70181
 31.12700, 5.53083, 1.002963e-02, 99.99675,50.00000,20.00000,5.70153
 31.19700, 5.54083, 1.075502e-02, 99.99675,50.00000,20.00000,5.70126
 31.27500, 5.55083, 1.142781e-02, 99.99675,50.00000,20.00000,5.70096
 31.35600, 5.56083, 1.208752e-02, 99.99448,50.00000,20.00000,5.70065
 31.44100, 5.57083, 1.280006e-02, 99.99123,50.00000,20.00000,5.70032
 31.52600, 5.58083, 1.360497e-02, 99.98798,50.00000,20.00000,5.69999
 31.61700, 5.59083, 1.447595e-02, 99.98237,50.00000,20.00000,5.69964
 31.71200, 5.60083, 1.551848e-02, 99.97577,50.00000,20.00000,5.69927
 31.80900, 5.61083, 1.657436e-02, 99.96927,50.00000,20.00000,5.69889
 31.91200, 5.62083, 1.736671e-02, 99.96592,50.00000,20.00000,5.69850
 32.02200, 5.63083, 1.852851e-02, 99.96484,50.00000,20.00000,5.69807
 32.13100, 5.64083, 1.940033e-02, 99.96484,50.00000,20.00000,5.69765
 32.24600, 5.65083, 2.065485e-02, 99.96592,50.00000,20.00000,5.69720
 32.36300, 5.66083, 2.161941e-02, 99.96701,50.00000,20.00000,5.69675
 32.48800, 5.67083, 2.271616e-02, 99.97026,50.00000,20.00000,5.69627
 32.61300, 5.68083, 2.386587e-02, 99.97252,50.00000,20.00000,5.69578
 32.75000, 5.69083, 2.514793e-02, 99.97469,50.00000,20.00000,5.69525
 32.88700, 5.70083, 2.645660e-02, 99.97587,50.00000,20.00000,5.69472
 33.02500, 5.71083, 2.750161e-02, 99.98020,50.00000,20.00000,5.69418
 33.17800, 5.72083, 2.882427e-02, 99.98355,50.00000,20.00000,5.69359
 33.32400, 5.73083, 3.014706e-02, 99.98680,50.00000,20.00000,5.69302
 33.47700, 5.74083, 3.139107e-02, 99.98690,50.00000,20.00000,5.69243
 33.64200, 5.75083, 3.278081e-02, 99.98572,50.00000,20.00000,5.69179
 33.80300, 5.76083, 3.409156e-02, 99.98355,50.00000,20.00000,5.69117
 33.97500, 5.77083, 3.548209e-02, 99.98020,50.00000,20.00000,5.69050
 34.15200, 5.78083, 3.705798e-02, 99.98020,50.00000,20.00000,5.68981
 34.33100, 5.79083, 3.850220e-02, 99.98129,50.00000,20.00000,5.68912
 34.51700, 5.80083, 4.005267e-02, 99.98345,50.00000,20.00000,5.68840
 34.70700, 5.81083, 4.176217e-02, 99.98798,50.00000,20.00000,5.68766
 34.90300, 5.82083, 4.344587e-02, 99.99232,50.00000,20.00000,5.68690
 35.10500, 5.83083, 4.498483e-02, 99.99458,50.00000,20.00000,5.68611
 35.31200, 5.84083, 4.685481e-02, 99.99350,50.00000,20.00000,5.68531
 35.52200, 5.85083, 4.835530e-02, 99.99123,50.00000,20.00000,5.68449
 35.74300, 5.86083, 5.000202e-02, 99.98680,50.00000,20.00000,5.68363
 35.96500, 5.87083, 5.204597e-02, 99.98464,50.00000,20.00000,5.68277
 36.19000, 5.88083, 5.394517e-02, 99.98237,50.00000,20.00000,5.68189
 36.42800, 5.89083, 5.562060e-02, 99.98247,50.00000,20.00000,5.68097
 36.66600, 5.90083, 5.756117e-02, 99.98138,50.00000,20.00000,5.68004
 36.91200, 5.91083, 5.946299e-02, 99.98138,50.00000,20.00000,5.67908
 37.16400, 5.92083, 6.140541e-02, 99.98020,50.00000,20.00000,5.67810
 37.42200, 5.93083, 6.346792e-02, 99.98020,50.00000,20.00000,5.67710
 37.68100, 5.94083, 6.551795e-02, 99.98129,50.00000,20.00000,5.67609
 37.95100, 5.95083, 6.756922e-02, 99.98129,50.00000,20.00000,5.67504
 38.22500, 5.96083, 6.974062e-02, 99.98237,50.00000,20.00000,5.67397
 38.50700, 5.97083, 7.186027e-02, 99.98572,50.00000,20.00000,5.67287
 38.79000, 5.98083, 7.410004e-02, 99.98798,50.00000,20.00000,5.67177
 39.08600, 5.99083, 7.565228e-02, 99.98897,50.00000,20.00000,5.67061
 39.38000, 6.00083, 7.792078e-02, 99.99015,50.00000,20.00000,5.66946
 39.68500, 6.01083, 8.012457e-02, 99.99448,50.00000,20.00000,5.66827
 39.99400, 6.02083, 8.239577e-02,100.00000,50.00000,20.00000,5.66707
 40.30900, 6.03083, 8.458873e-02,100.00325,50.00000,20.00000,5.66584
 40.63100, 6.04083, 8.695552e-02,100.00443,50.00000,20.00000,5.66458
 40.96000, 6.05083, 8.946975e-02,100.00660,50.00000,20.00000,5.66329
 41.28900, 6.06083, 9.185241e-02,100.00670,50.00000,20.00000,5.66201
 41.63100, 6.07083, 9.421046e-02,100.00443,50.00000,20.00000,5.66067
 41.97600, 6.08083, 9.637063e-02,100.00325,50.00000,20.00000,5.65932
 42.32800, 6.09083, 9.867848e-02,100.00108,50.00000,20.00000,5.65794
 42.68500, 6.10083,      0.10131,100.00335,50.00000,20.00000,5.65654
 43.04900, 6.11083,      0.10379,100.00335,50.00000,20.00000,5.65512
 43.41800, 6.12083,      0.10641,100.00325,50.00000,20.00000,5.65367
 43.79500, 6.13083,      0.10892,100.00227,50.00000,20.00000,5.65219
 44.17400, 6.14083,      0.11134, 99.99892,50.00000,20.00000,5.65071
 44.56200, 6.15083,      0.11368, 99.99340,50.00000,20.00000,5.64918
 44.95500, 6.16083,      0.11617, 99.98907,50.00000,20.00000,5.64764
 45.35600, 6.17083,      0.11849, 99.98572,50.00000,20.00000,5.64607
 45.76300, 6.18083,      0.12087, 99.98572,50.00000,20.00000,5.64447
 46.17700, 6.19083,      0.12351, 99.98789,50.00000,20.00000,5.64284
 46.59000, 6.20083,      0.12605, 99.99123,50.00000,20.00000,5.64122
 47.01700, 6.21083,      0.12850, 99.99448,50.00000,20.00000,5.63954
 47.44600, 6.22083,      0.13073, 99.99557,50.00000,20.00000,5.63785
 47.88000, 6.23083,      0.13318, 99.99783,50.00000,20.00000,5.63614
 48.32400, 6.24083,      0.13578,100.00010,50.00000,20.00000,5.63439
 48.77300, 6.25083,      0.13826,100.00010,50.00000,20.00000,5.63263
 49.22500, 6.26083,      0.14076,100.00000,50.00000,20.00000,5.63084
 49.68400, 6.27083,      0.14304, 99.99892,50.00000,20.00000,5.62903
 50.15100, 6.28083,      0.14529, 99.99892,50.00000,20.00000,5.62719
 50.62400, 6.29083,      0.14765, 99.99783,50.00000,20.00000,5.62533
 51.10000, 6.30083,      0.15009, 99.99675,50.00000,20.00000,5.62345
 51.58300, 6.31083,      0.15248, 99.99675,50.00000,20.00000,5.62154
 52.07200, 6.32083,      0.15478, 99.99340,50.00000,20.00000,5.61961
 52.56900, 6.33083,      0.15694, 99.99123,50.00000,20.00000,5.61764
 53.07100, 6.34083,      0.15914, 99.99005,50.00000,20.00000,5.61566
 53.57700, 6.35083,      0.16137, 99.98789,50.00000,20.00000,5.61365
 54.08600, 6.36083,      0.16362, 99.98572,50.00000,20.00000,5.61164
 54.60600, 6.37083,      0.16580, 99.98247,50.00000,20.00000,5.60958
 55.13000, 6.38083,      0.16787, 99.98247,50.00000,20.00000,5.60750
 55.66100, 6.39083,      0.16982, 99.98020,50.00000,20.00000,5.60540
 56.19800, 6.40083,      0.17175, 99.97804,50.00000,20.00000,5.60327
 56.73900, 6.41083,      0.17371, 99.97804,50.00000,20.00000,5.60112
 57.28500, 6.42083,      0.17548, 99.97804,50.00000,20.00000,5.59895
 57.83900, 6.43083,      0.17715, 99.97912,50.00000,20.00000,5.59675
 58.39300, 6.44083,      0.17873, 99.98129,50.00000,20.00000,5.59455
 58.95500, 6.45083,      0.18028, 99.98355,50.00000,20.00000,5.59232
 59.52700, 6.46083,      0.18169, 99.98355,50.00000,20.00000,5.59004
 60.10100, 6.47083,      0.18286, 99.98138,50.00000,20.00000,5.58776
 60.68200, 6.48083,      0.18410, 99.97912,50.00000,20.00000,5.58544
 61.26600, 6.49083,      0.18539, 99.97695,50.00000,20.00000,5.58312
 61.85500, 6.50083,      0.18650, 99.97685,50.00000,20.00000,5.58077
 62.45100, 6.51083,      0.18744, 99.97685,50.00000,20.00000,5.57839
 63.05300, 6.52083,      0.18809, 99.97794,50.00000,20.00000,5.57599
 63.65800, 6.53083,      0.18883, 99.98020,50.00000,20.00000,5.57357
 64.27200, 6.54083,      0.18947, 99.98129,50.00000,20.00000,5.57112
 64.88900, 6.55083,      0.18985, 99.98237,50.00000,20.00000,5.56866
 65.50600, 6.56083,      0.19030, 99.98355,50.00000,20.00000,5.56619
 66.13500, 6.57083,      0.19050, 99.98020,50.00000,20.00000,5.56367
 66.76800, 6.58083,      0.19071, 99.98020,50.00000,20.00000,5.56114
 67.40500, 6.59083,      0.19087, 99.97912,50.00000,20.00000,5.55859
 68.04600, 6.60083,      0.19097, 99.97794,50.00000,20.00000,5.55602
 68.69200, 6.61083,      0.19084, 99.97479,50.00000,20.00000,5.55343
 69.34600, 6.62083,      0.19065, 99.97252,50.00000,20.00000,5.55081
 70.00000, 6.63083,      0.19047, 99.97134,50.00000,20.00000,5.54818
 70.66300, 6.64083,      0.19019, 99.97026,50.00000,20.00000,5.54552
 71.32800, 6.65083,      0.18995, 99.96701,50.00000,20.00000,5.54285
 72.00000, 6.66083,      0.18954, 99.96701,50.00000,20.00000,5.54015
 72.67300, 6.67083,      0.18904, 99.96917,50.00000,20.00000,5.53744
 73.35400, 6.68083,      0.18854, 99.97252,50.00000,20.00000,5.53470
 74.04100, 6.69083,      0.18786, 99.97587,50.00000,20.00000,5.53194
 74.73000, 6.70083,      0.18692, 99.97577,50.00000,20.00000,5.52916
 75.42200, 6.71083,      0.18608, 99.97479,50.00000,20.00000,5.52637
 76.11800, 6.72083,      0.18526, 99.97144,50.00000,20.00000,5.52357
 76.81900, 6.73083,      0.18436, 99.96484,50.00000,20.00000,5.52074
 77.52600, 6.74083,      0.18336, 99.96257,50.00000,20.00000,5.51789
 78.23500, 6.75083,      0.18233, 99.96257,50.00000,20.00000,5.51502
 78.95200, 6.76083,      0.18132, 99.96474,50.00000,20.00000,5.51213
 79.67200, 6.77083,      0.18022, 99.97144,50.00000,20.00000,5.50922
 80.39300, 6.78083,      0.17892, 99.97360,50.00000,20.00000,5.50630
 81.11600, 6.79083,      0.17778, 99.97469,50.00000,20.00000,5.50338
 81.84700, 6.80083,      0.17671, 99.97252,50.00000,20.00000,5.50042
 82.58300, 6.81083,      0.17548, 99.96809,50.00000,20.00000,5.49744
 83.32100, 6.82083,      0.17411, 99.96257,50.00000,20.00000,5.49445
 84.06400, 6.83083,      0.17291, 99.96149,50.00000,20.00000,5.49144
 84.81000, 6.84083,      0.17166, 99.94938,50.00000,20.00000,5.48841
 85.56200, 6.85083,      0.17021, 99.94051,50.00000,20.00000,5.48536
 86.31600, 6.86083,      0.16891, 99.94278,50.00000,20.00000,5.48230
 87.07000, 6.87083,      0.16760, 99.93844,50.00000,20.00000,5.47923
 87.83000, 6.88083,      0.16615, 99.94396,50.00000,20.00000,5.47615
 88.59300, 6.89083,      0.16502, 99.92731,50.00000,20.00000,5.47304
 89.35900, 6.90083,      0.16372, 99.92515,50.00000,20.00000,5.46993
 90.13300, 6.91083,      0.16228, 99.91313,50.00000,20.00000,5.46678
 90.90600, 6.92083,      0.16087, 99.91195,50.00000,20.00000,5.46363
 91.68200, 6.93083,      0.15952, 99.91520,50.00000,20.00000,5.46047
 92.46100, 6.94083,      0.15839, 99.90870,50.00000,20.00000,5.45729
 93.24500, 6.95083,      0.15716, 99.91086,50.00000,20.00000,5.45410
 94.03200, 6.96083,      0.15565, 99.89875,50.00000,20.00000,5.45089
 94.82000, 6.97083,      0.15419, 99.90092,50.00000,20.00000,5.44767
 95.61200, 6.98083,      0.15299, 99.88989,50.00000,20.00000,5.44444
 96.40400, 6.99083,      0.15173, 99.88220,50.00000,20.00000,5.44120
 97.20500, 7.00083,      0.15015, 99.87777,50.00000,20.00000,5.43793
 98.00600, 7.01083,      0.14867, 99.87452,50.00000,20.00000,5.43465
 98.80700, 7.02083,      0.14726, 99.87895,50.00000,20.00000,5.43137
 99.61400, 7.03083,      0.14591, 99.87560,50.00000,20.00000,5.42807
100.42100, 7.04083,      0.14407, 99.88339,50.00000,20.00000,5.42477
101.23100, 7.05083,      0.14243, 99.88220,50.00000,20.00000,5.42145
102.04400, 7.06083,      0.14076, 99.87885,50.00000,20.00000,5.41812
102.85700, 7.07083,      0.13907, 99.87560,50.00000,20.00000,5.41478
103.67400, 7.08083,      0.13706, 99.86901,50.00000,20.00000,5.41143
104.49700, 7.09083,      0.13535, 99.85472,50.00000,20.00000,5.40806
105.31700, 7.10083,      0.13315, 99.84813,50.00000,20.00000,5.40469
106.13700, 7.11083,      0.13095, 99.83493,50.00000,20.00000,5.40132
106.96300, 7.12083,      0.12870, 99.82941,50.00000,20.00000,5.39793
107.79300, 7.13083,      0.12661, 99.82606,50.00000,20.00000,5.39452
108.62400, 7.14083,      0.12414, 99.81503,50.00000,20.00000,5.39110
109.45600, 7.15083,      0.12156, 99.81503,50.00000,20.00000,5.38768
110.28600, 7.16083,      0.11852, 99.81178,50.00000,20.00000,5.38426
111.11900, 7.17083,      0.11553, 99.79967,50.00000,20.00000,5.38083
111.95600, 7.18083,      0.11253, 99.79967,50.00000,20.00000,5.37739
112.79700, 7.19083,      0.10924, 99.79307,50.00000,20.00000,5.37392
113.63500, 7.20083,      0.10536, 99.78420,50.00000,20.00000,5.37047
114.47700, 7.21083,      0.10159, 99.78420,50.00000,20.00000,5.36700
115.32000, 7.22083, 9.748244e-02, 99.78420,50.00000,20.00000,5.36352
116.16200, 7.23083, 9.303144e-02, 99.77760,50.00000,20.00000,5.36005
117.00700, 7.24083, 8.837850e-02, 99.77101,50.00000,20.00000,5.35656
117.85300, 7.25083, 8.359323e-02, 99.77101,50.00000,20.00000,5.35306
118.70000, 7.26083, 7.842254e-02, 99.77101,50.00000,20.00000,5.34957
119.54800, 7.27083, 7.309054e-02, 99.77101,50.00000,20.00000,5.34606
120.39700, 7.28083, 6.758283e-02, 99.75456,50.00000,20.00000,5.34255
121.24800, 7.29083, 6.189910e-02, 99.74234,50.00000,20.00000,5.33903
122.09700, 7.30083, 5.527828e-02, 99.73909,50.00000,20.00000,5.33552
122.95100, 7.31083, 4.912810e-02, 99.72590,50.00000,20.00000,5.33199
123.80300, 7.32083, 4.217997e-02, 99.72255,50.00000,20.00000,5.32846
124.65900, 7.33083, 3.516631e-02, 99.70718,50.00000,20.00000,5.32492
125.51200, 7.34083, 2.757841e-02, 99.70383,50.00000,20.00000,5.32139
126.36600, 7.35083, 1.992393e-02, 99.68729,50.00000,20.00000,5.31785
127.22300, 7.36083, 1.216030e-02, 99.68404,50.00000,20.00000,5.31430
128.07700, 7.37083, 4.004256e-03, 99.66749,50.00000,20.00000,5.31076
128.93500, 7.38083,-4.544974e-03, 99.66306,50.00000,20.00000,5.30720
129.78799, 7.39083,-1.326148e-02, 99.64326,50.00000,20.00000,5.30366
130.64799, 7.40083,-2.213152e-02, 99.64001,50.00000,20.00000,5.30009
131.50400, 7.41083,-3.142485e-02, 99.62346,50.00000,20.00000,5.29654
132.36099, 7.42083,-4.087266e-02, 99.62012,50.00000,20.00000,5.29298
133.21800, 7.43083,-5.122819e-02, 99.60475,50.00000,20.00000,5.28943
134.07600, 7.44083,-6.092958e-02, 99.60800,50.00000,20.00000,5.28586
134.93401, 7.45083,-7.102816e-02, 99.59924,50.00000,20.00000,5.28230
135.79401, 7.46083,-8.139674e-02, 99.59480,50.00000,20.00000,5.27872
136.64900, 7.47083,-9.177904e-02, 99.57501,50.00000,20.00000,5.27517
137.51100, 7.48083,     -0.10256, 99.58161,50.00000,20.00000,5.27159
138.36301, 7.49083,     -0.11376, 99.56841,50.00000,20.00000,5.26804
139.22200, 7.50083,     -0.12622, 99.56407,50.00000,20.00000,5.26447
140.07899, 7.51083,     -0.13733, 99.55078,50.00000,20.00000,5.26090
140.93800, 7.52083,     -0.14849, 99.55186,50.00000,20.00000,5.25733
141.79100, 7.53083,     -0.16012, 99.53975,50.00000,20.00000,5.25378
142.64900, 7.54083,     -0.17174, 99.53216,50.00000,20.00000,5.25021
143.50101, 7.55083,     -0.18335, 99.53098,50.00000,20.00000,5.24666
144.35800, 7.56083,     -0.19510, 99.51443,50.00000,20.00000,5.24309
145.21001, 7.57083,     -0.20696, 99.51887,50.00000,20.00000,5.23954
146.06400, 7.58083,     -0.21892, 99.51227,50.00000,20.00000,5.23598
146.91800, 7.59083,     -0.23067, 99.51227,50.00000,20.00000,5.23242
147.77100, 7.60083,     -0.24267, 99.51227,50.00000,20.00000,5.22887
148.61700, 7.61083,     -0.25487, 99.51108,50.00000,20.00000,5.22534
149.47200, 7.62083,     -0.26678, 99.51010,50.00000,20.00000,5.22178
150.32001, 7.63083,     -0.27873, 99.50675,50.00000,20.00000,5.21824
151.16701, 7.64083,     -0.29068, 99.50232,50.00000,20.00000,5.21471
152.01500, 7.65083,     -0.30255, 99.49907,50.00000,20.00000,5.21117
152.86400, 7.66083,     -0.31435, 99.49247,50.00000,20.00000,5.20763
153.70799, 7.67083,     -0.32624, 99.48695,50.00000,20.00000,5.20411
154.55099, 7.68083,     -0.33793, 99.48252,50.00000,20.00000,5.20059
155.39400, 7.69083,     -0.34963, 99.47149,50.00000,20.00000,5.19707
156.23599, 7.70083,     -0.36151, 99.47041,50.00000,20.00000,5.19355
157.07700, 7.71083,     -0.37317, 99.46598,50.00000,20.00000,5.19004
157.91600, 7.72083,     -0.38476, 99.45603,50.00000,20.00000,5.18654
158.75400, 7.73083,     -0.39594, 99.45396,50.00000,20.00000,5.18304
159.59100, 7.74083,     -0.40675, 99.44175,50.00000,20.00000,5.17954
160.42500, 7.75083,     -0.41739, 99.44401,50.00000,20.00000,5.17606
161.26199, 7.76083,     -0.42828, 99.43850,50.00000,20.00000,5.17256
162.09200, 7.77083,     -0.43886, 99.43850,50.00000,20.00000,5.16909
162.92400, 7.78083,     -0.44931, 99.43731,50.00000,20.00000,5.16562
163.75301, 7.79083,     -0.45945, 99.43190,50.00000,20.00000,5.16215
164.57700, 7.80083,     -0.46947, 99.43406,50.00000,20.00000,5.15871
165.40100, 7.81083,     -0.47909, 99.42746,50.00000,20.00000,5.15526
166.22400, 7.82083,     -0.48852, 99.42520,50.00000,20.00000,5.15182
167.05000, 7.83083,     -0.49762, 99.41870,50.00000,20.00000,5.14837
167.86600, 7.84083,     -0.50676, 99.40767,50.00000,20.00000,5.14496
168.68700, 7.85083,     -0.51571, 99.40983,50.00000,20.00000,5.14153
169.50101, 7.86083,     -0.52422, 99.39772,50.00000,20.00000,5.13812
170.31599, 7.87083,     -0.53244, 99.39880,50.00000,20.00000,5.13472
171.12700, 7.88083,     -0.54091, 99.39555,50.00000,20.00000,5.13132
171.93700, 7.89083,     -0.54878, 99.39112,50.00000,20.00000,5.12794
172.74699, 7.90083,     -0.55629, 99.39339,50.00000,20.00000,5.12455
173.55400, 7.91083,     -0.56383, 99.39555,50.00000,20.00000,5.12117
174.35699, 7.92083,     -0.57094, 99.38895,50.00000,20.00000,5.11781
175.16100, 7.93083,     -0.57793, 99.39004,50.00000,20.00000,5.11445
175.96001, 7.94083,     -0.58451, 99.37901,50.00000,20.00000,5.11111
176.75600, 7.95083,     -0.59096, 99.37349,50.00000,20.00000,5.10778
177.55200, 7.96083,     -0.59700, 99.36916,50.00000,20.00000,5.10445
178.34500, 7.97083,     -0.60275, 99.35261,50.00000,20.00000,5.10113
179.13800, 7.98083,     -0.60822, 99.35261,50.00000,20.00000,5.09782
179.92300, 7.99083,     -0.61352, 99.33390,50.00000,20.00000,5.09453
180.70700, 8.00083,     -0.61859, 99.33941,50.00000,20.00000,5.09125
181.49100, 8.01083,     -0.62305, 99.33173,50.00000,20.00000,5.08797
182.27200, 8.02083,     -0.62749, 99.32947,50.00000,20.00000,5.08471
183.04900, 8.03083,     -0.63187, 99.32070,50.00000,20.00000,5.08145
183.82700, 8.04083,     -0.63565, 99.30740,50.00000,20.00000,5.07820
184.60100, 8.05083,     -0.63921, 99.30858,50.00000,20.00000,5.07496
185.37000, 8.06083,     -0.64252, 99.29755,50.00000,20.00000,5.07175
186.13901, 8.07083,     -0.64576, 99.29755,50.00000,20.00000,5.06853
186.90300, 8.08083,     -0.64868, 99.28879,50.00000,20.00000,5.06533
187.66701, 8.09083,     -0.65135, 99.27224,50.00000,20.00000,5.06214
188.42599, 8.10083,     -0.65350, 99.27106,50.00000,20.00000,5.05896
189.18401, 8.11083,     -0.65522, 99.25244,50.00000,20.00000,5.05579
189.93900, 8.12083,     -0.65673, 99.24358,50.00000,20.00000,5.05263
190.69099, 8.13083,     -0.65786, 99.22930,50.00000,20.00000,5.04949
191.43900, 8.14083,     -0.65873, 99.21935,50.00000,20.00000,5.04636
192.18800, 8.15083,     -0.65944, 99.20399,50.00000,20.00000,5.04323
192.93100, 8.16083,     -0.65991, 99.17749,50.00000,20.00000,5.04012
193.67000, 8.17083,     -0.66024, 99.17099,50.00000,20.00000,5.03703
194.41100, 8.18083,     -0.66019, 99.15553,50.00000,20.00000,5.03393
195.14700, 8.19083,     -0.65993, 99.14115,50.00000,20.00000,5.03085
195.87801, 8.20083,     -0.65937, 99.11485,50.00000,20.00000,5.02780
196.60699, 8.21083,     -0.65834, 99.10599,50.00000,20.00000,5.02475
197.33299, 8.22083,     -0.65710, 99.09712,50.00000,20.00000,5.02172
198.06100, 8.23083,     -0.65594, 99.07959,50.00000,20.00000,5.01867
198.77901, 8.24083,     -0.65437, 99.06304,50.00000,20.00000,5.01567
199.49600, 8.25083,     -0.65256, 99.04660,50.00000,20.00000,5.01267
200.21001, 8.26083,     -0.65056, 99.03330,50.00000,20.00000,5.00969
200.92300, 8.27083,     -0.64792, 99.01902,50.00000,20.00000,5.00671
201.63200, 8.28083,     -0.64488, 98.99144,50.00000,20.00000,5.00375
202.33900, 8.29083,     -0.64188, 98.98267,50.00000,20.00000,5.00079
203.03999, 8.30083,     -0.63856, 98.95953,50.00000,20.00000,4.99786
203.74200, 8.31083,     -0.63495, 98.94082,50.00000,20.00000,4.99493
204.43900, 8.32083,     -0.63124, 98.91442,50.00000,20.00000,4.99202
205.13300, 8.33083,     -0.62693, 98.89905,50.00000,20.00000,4.98912
205.82300, 8.34083,     -0.62256, 98.88684,50.00000,20.00000,4.98624
206.51401, 8.35083,     -0.61783, 98.86153,50.00000,20.00000,4.98335
207.19800, 8.36083,     -0.61268, 98.83513,50.00000,20.00000,4.98050
207.88000, 8.37083,     -0.60693, 98.81977,50.00000,20.00000,4.97765
208.56100, 8.38083,     -0.60099, 98.79652,50.00000,20.00000,4.97481
209.23599, 8.39083,     -0.59500, 98.77348,50.00000,20.00000,4.97199
209.91000, 8.40083,     -0.58883, 98.72837,50.00000,20.00000,4.96918
210.58000, 8.41083,     -0.58228, 98.71399,50.00000,20.00000,4.96638
211.24899, 8.42083,     -0.57533, 98.68316,50.00000,20.00000,4.96359
211.91100, 8.43083,     -0.56819, 98.65341,50.00000,20.00000,4.96083
212.57300, 8.44083,     -0.56110, 98.61934,50.00000,20.00000,4.95806
213.23000, 8.45083,     -0.55333, 98.59944,50.00000,20.00000,4.95532
213.88400, 8.46083,     -0.54526, 98.58841,50.00000,20.00000,4.95259
214.53799, 8.47083,     -0.53695, 98.55551,50.00000,20.00000,4.94987
215.18700, 8.48083,     -0.52842, 98.52025,50.00000,20.00000,4.94716
215.83400, 8.49083,     -0.51930, 98.49927,50.00000,20.00000,4.94446
216.47600, 8.50083,     -0.51026, 98.46845,50.00000,20.00000,4.94179
217.11700, 8.51083,     -0.50074, 98.43870,50.00000,20.00000,4.93911
217.75400, 8.52083,     -0.49084, 98.38591,50.00000,20.00000,4.93646
218.38699, 8.53083,     -0.48070, 98.35725,50.00000,20.00000,4.93382
219.01601, 8.54083,     -0.47039, 98.32307,50.00000,20.00000,4.93120
219.64700, 8.55083,     -0.45973, 98.28023,50.00000,20.00000,4.92857
220.26900, 8.56083,     -0.44883, 98.23827,50.00000,20.00000,4.92598
220.89200, 8.57083,     -0.43761, 98.20311,50.00000,20.00000,4.92339
221.51300, 8.58083,     -0.42616, 98.17888,50.00000,20.00000,4.92080
222.12900, 8.59083,     -0.41463, 98.13150,50.00000,20.00000,4.91823
222.73900, 8.60083,     -0.40266, 98.08974,50.00000,20.00000,4.91569
223.35100, 8.61083,     -0.39048, 98.05005,50.00000,20.00000,4.91315
223.95799, 8.62083,     -0.37813, 98.02247,50.00000,20.00000,4.91062
224.56300, 8.63083,     -0.36542, 97.97510,50.00000,20.00000,4.90810
225.16499, 8.64083,     -0.35280, 97.92457,50.00000,20.00000,4.90560
225.76401, 8.65083,     -0.33966, 97.89473,50.00000,20.00000,4.90310
226.35600, 8.66083,     -0.32659, 97.85514,50.00000,20.00000,4.90064
226.94901, 8.67083,     -0.31336, 97.81554,50.00000,20.00000,4.89817
227.54201, 8.68083,     -0.29987, 97.75172,50.00000,20.00000,4.89571
228.12601, 8.69083,     -0.28634, 97.72079,50.00000,20.00000,4.89328
228.70799, 8.70083,     -0.27250, 97.67125,50.00000,20.00000,4.89086
229.28999, 8.71083,     -0.25855, 97.61954,50.00000,20.00000,4.88844
229.86800, 8.72083,     -0.24458, 97.55897,50.00000,20.00000,4.88604
230.44400, 8.73083,     -0.23062, 97.51819,50.00000,20.00000,4.88365
231.01801, 8.74083,     -0.21657, 97.47860,50.00000,20.00000,4.88126
231.58600, 8.75083,     -0.20236, 97.42354,50.00000,20.00000,4.87890
232.15500, 8.76083,     -0.18852, 97.36297,50.00000,20.00000,4.87654
232.71800, 8.77083,     -0.17449, 97.32121,50.00000,20.00000,4.87420
233.28000, 8.78083,     -0.16050, 97.27709,50.00000,20.00000,4.87187
233.84000, 8.79083,     -0.14652, 97.21651,50.00000,20.00000,4.86954
234.39799, 8.80083,     -0.13256, 97.15161,50.00000,20.00000,4.86722
234.94600, 8.81083,     -0.11870, 97.10758,50.00000,20.00000,4.86495
235.49699, 8.82083,     -0.10550, 97.06129,50.00000,20.00000,4.86266
236.04500, 8.83083,-9.215944e-02, 97.00732,50.00000,20.00000,4.86039
236.59300, 8.84083,-7.893134e-02, 96.94123,50.00000,20.00000,4.85812
237.13499, 8.85083,-6.586073e-02, 96.90715,50.00000,20.00000,4.85587
237.67500, 8.86083,-5.310303e-02, 96.85544,50.00000,20.00000,4.85363
238.21300, 8.87083,-4.079816e-02, 96.79930,50.00000,20.00000,4.85140
238.74699, 8.88083,-2.846638e-02, 96.73095,50.00000,20.00000,4.84918
239.27901, 8.89083,-1.666591e-02, 96.68909,50.00000,20.00000,4.84698
239.80901, 8.90083,-5.304489e-03, 96.63511,50.00000,20.00000,4.84478
240.33701, 8.91083, 5.958608e-03, 96.57464,50.00000,20.00000,4.84260
240.86099, 8.92083, 1.639352e-02, 96.49752,50.00000,20.00000,4.84043
241.38300, 8.93083, 2.682222e-02, 96.44798,50.00000,20.00000,4.83826
241.90300, 8.94083, 3.676296e-02, 96.39075,50.00000,20.00000,4.83611
242.42101, 8.95083, 4.655702e-02, 96.33126,50.00000,20.00000,4.83396
242.93600, 8.96083, 5.565980e-02, 96.26311,50.00000,20.00000,4.83183
243.45100, 8.97083, 6.410159e-02, 96.21465,50.00000,20.00000,4.82970
243.95700, 8.98083, 7.211444e-02, 96.16944,50.00000,20.00000,4.82761
244.46600, 8.99083, 7.979186e-02, 96.10660,50.00000,20.00000,4.82550
244.97301, 9.00083, 8.697730e-02, 96.03618,50.00000,20.00000,4.82340
245.47501, 9.01083, 9.343605e-02, 95.98221,50.00000,20.00000,4.82133
245.97701, 9.02083, 9.947937e-02, 95.92823,50.00000,20.00000,4.81925
246.47600, 9.03083,      0.10501, 95.86106,50.00000,20.00000,4.81719
246.97200, 9.04083,      0.11008, 95.79399,50.00000,20.00000,4.81514
247.46700, 9.05083,      0.11458, 95.74327,50.00000,20.00000,4.81309
247.95900, 9.06083,      0.11855, 95.69599,50.00000,20.00000,4.81106
248.45000, 9.07083,      0.12188, 95.63207,50.00000,20.00000,4.80903
248.93700, 9.08083,      0.12462, 95.56490,50.00000,20.00000,4.80702
249.42300, 9.09083,      0.12688, 95.51536,50.00000,20.00000,4.80501
249.90500, 9.10083,      0.12860, 95.46138,50.00000,20.00000,4.80302
250.38699, 9.11083,      0.13006, 95.40199,50.00000,20.00000,4.80103
250.86600, 9.12083,      0.13087, 95.32379,50.00000,20.00000,4.79905
251.34300, 9.13083,      0.13092, 95.28085,50.00000,20.00000,4.79708
251.81900, 9.14083,      0.13066, 95.22362,50.00000,20.00000,4.79512
252.29201, 9.15083,      0.13007, 95.16197,50.00000,20.00000,4.79317
252.76401, 9.16083,      0.12890, 95.09361,50.00000,20.00000,4.79122
253.23500, 9.17083,      0.12712, 95.04190,50.00000,20.00000,4.78928
253.70300, 9.18083,      0.12515, 94.99354,50.00000,20.00000,4.78735
254.16701, 9.19083,      0.12264, 94.92529,50.00000,20.00000,4.78543
254.63000, 9.20083,      0.11970, 94.85812,50.00000,20.00000,4.78352
255.09399, 9.21083,      0.11631, 94.80739,50.00000,20.00000,4.78161
255.55499, 9.22083,      0.11271, 94.75677,50.00000,20.00000,4.77971
256.01401, 9.23083,      0.10841, 94.70279,50.00000,20.00000,4.77782
256.47101, 9.24083,      0.10409, 94.63562,50.00000,20.00000,4.77594
256.92599, 9.25083, 9.942931e-02, 94.60154,50.00000,20.00000,4.77406
257.38101, 9.26083, 9.442959e-02, 94.54432,50.00000,20.00000,4.77219
257.83401, 9.27083, 8.903196e-02, 94.49143,50.00000,20.00000,4.77033
258.28699, 9.28083, 8.318888e-02, 94.41983,50.00000,20.00000,4.76846
258.73599, 9.29083, 7.743553e-02, 94.37245,50.00000,20.00000,4.76661
259.18399, 9.30083, 7.136224e-02, 94.32291,50.00000,20.00000,4.76477
259.62701, 9.31083, 6.493688e-02, 94.26017,50.00000,20.00000,4.76295
260.07300, 9.32083, 5.864879e-02, 94.19851,50.00000,20.00000,4.76111
260.51599, 9.33083, 5.202415e-02, 94.14681,50.00000,20.00000,4.75929
260.95801, 9.34083, 4.495214e-02, 94.10170,50.00000,20.00000,4.75747
261.39999, 9.35083, 3.785892e-02, 94.04437,50.00000,20.00000,4.75566
261.83801, 9.36083, 3.068113e-02, 93.97937,50.00000,20.00000,4.75386
262.27600, 9.37083, 2.319746e-02, 93.93751,50.00000,20.00000,4.75206
262.71100, 9.38083, 1.570807e-02, 93.88364,50.00000,20.00000,4.75027
263.14700, 9.39083, 8.213056e-03, 93.83518,50.00000,20.00000,4.74848
263.57901, 9.40083, 6.807195e-04, 93.76692,50.00000,20.00000,4.74670
264.01199, 9.41083,-7.126478e-03, 93.72841,50.00000,20.00000,4.74493
264.44400, 9.42083,-1.508210e-02, 93.67660,50.00000,20.00000,4.74315
264.87500, 9.43083,-2.310704e-02, 93.61712,50.00000,20.00000,4.74138
265.30399, 9.44083,-3.099523e-02, 93.55546,50.00000,20.00000,4.73962
265.73199, 9.45083,-3.900027e-02, 93.50375,50.00000,20.00000,4.73787
266.15799, 9.46083,-4.715395e-02, 93.44988,50.00000,20.00000,4.73612
266.58499, 9.47083,-5.491690e-02, 93.40024,50.00000,20.00000,4.73437
267.01099, 9.48083,-6.287607e-02, 93.33090,50.00000,20.00000,4.73262
267.43301, 9.49083,-7.111089e-02, 93.28352,50.00000,20.00000,4.73089
267.85501, 9.50083,-7.922462e-02, 93.24058,50.00000,20.00000,4.72916
268.27701, 9.51083,-8.731248e-02, 93.18336,50.00000,20.00000,4.72743
268.70001, 9.52083,-9.532700e-02, 93.11067,50.00000,20.00000,4.72570
269.11700, 9.53083,     -0.10330, 93.06989,50.00000,20.00000,4.72399
269.53900, 9.54083,     -0.11145, 93.01710,50.00000,20.00000,4.72226
269.95700, 9.55083,     -0.11960, 92.95535,50.00000,20.00000,4.72055
270.37201, 9.56083,     -0.12741, 92.89596,50.00000,20.00000,4.71885
270.78900, 9.57083,     -0.13540, 92.84641,50.00000,20.00000,4.71714
271.20599, 9.58083,     -0.14331, 92.80229,50.00000,20.00000,4.71543
271.61899, 9.59083,     -0.15130, 92.74625,50.00000,20.00000,4.71374
272.03299, 9.60083,     -0.15914, 92.68449,50.00000,20.00000,4.71205
272.44800, 9.61083,     -0.16680, 92.64500,50.00000,20.00000,4.71035
272.85901, 9.62083,     -0.17455, 92.59102,50.00000,20.00000,4.70867
273.27100, 9.63083,     -0.18215, 92.53488,50.00000,20.00000,4.70699
273.68301, 9.64083,     -0.19001, 92.47313,50.00000,20.00000,4.70530
274.09500, 9.65083,     -0.19778, 92.42250,50.00000,20.00000,4.70362
274.50500, 9.66083,     -0.20520, 92.36528,50.00000,20.00000,4.70194
274.91400, 9.67083,     -0.21268, 92.31239,50.00000,20.00000,4.70027
275.32101, 9.68083,     -0.22008, 92.24748,50.00000,20.00000,4.69861
275.73001, 9.69083,     -0.22750, 92.20011,50.00000,20.00000,4.69694
276.13800, 9.70083,     -0.23504, 92.15717,50.00000,20.00000,4.69527
276.54800, 9.71083,     -0.24232, 92.10103,50.00000,20.00000,4.69360
276.95099, 9.72083,     -0.24954, 92.03050,50.00000,20.00000,4.69196
277.35999, 9.73083,     -0.25661, 91.97880,50.00000,20.00000,4.69029
277.76501, 9.74083,     -0.26377, 91.92926,50.00000,20.00000,4.68863
278.17099, 9.75083,     -0.27093, 91.86642,50.00000,20.00000,4.68698
278.57501, 9.76083,     -0.27791, 91.78940,50.00000,20.00000,4.68533
278.98001, 9.77083,     -0.28505, 91.74527,50.00000,20.00000,4.68368
279.38400, 9.78083,     -0.29194, 91.69583,50.00000,20.00000,4.68203
279.78799, 9.79083,     -0.29877, 91.63309,50.00000,20.00000,4.68038
280.19199, 9.80083,     -0.30571, 91.56257,50.00000,20.00000,4.67874
280.59399, 9.81083,     -0.31254, 91.52288,50.00000,20.00000,4.67710
280.99701, 9.82083,     -0.31932, 91.47117,50.00000,20.00000,4.67546
281.40100, 9.83083,     -0.32620, 91.40291,50.00000,20.00000,4.67381
281.80200, 9.84083,     -0.33300, 91.32579,50.00000,20.00000,4.67218
282.20599, 9.85083,     -0.33962, 91.27192,50.00000,20.00000,4.67054
282.60800, 9.86083,     -0.34627, 91.22129,50.00000,20.00000,4.66890
283.00900, 9.87083,     -0.35291, 91.15412,50.00000,20.00000,4.66727
283.41000, 9.88083,     -0.35914, 91.07700,50.00000,20.00000,4.66564
283.81299, 9.89083,     -0.36578, 91.02529,50.00000,20.00000,4.66400
284.21201, 9.90083,     -0.37238, 90.96797,50.00000,20.00000,4.66238
284.61499, 9.91083,     -0.37900, 90.89863,50.00000,20.00000,4.66074
285.01599, 9.92083,     -0.38540, 90.81935,50.00000,20.00000,4.65911
285.41699, 9.93083,     -0.39185, 90.76872,50.00000,20.00000,4.65748
285.82001, 9.94083,     -0.39815, 90.71140,50.00000,20.00000,4.65584
286.21899, 9.95083,     -0.40463, 90.63763,50.00000,20.00000,4.65422
286.62000, 9.96083,     -0.41111, 90.55174,50.00000,20.00000,4.65259
287.02100, 9.97083,     -0.41745, 90.49344,50.00000,20.00000,4.65096
287.42401, 9.98083,     -0.42371, 90.43611,50.00000,20.00000,4.64933
287.82300, 9.99083,     -0.43020, 90.36234,50.00000,20.00000,4.64771
288.22501,10.00083,     -0.43641, 90.27872,50.00000,20.00000,4.64608
288.63000,10.01083,     -0.44294, 90.22140,50.00000,20.00000,4.64443
289.02802,10.02083,     -0.44952, 90.15758,50.00000,20.00000,4.64282
289.42899,10.03083,     -0.45593, 90.08272,50.00000,20.00000,4.64119
289.83401,10.04083,     -0.46228, 89.99792,50.00000,20.00000,4.63955
290.23401,10.05083,     -0.46872, 89.94405,50.00000,20.00000,4.63793
290.63699,10.06083,     -0.47527, 89.87244,50.00000,20.00000,4.63630
291.03900,10.07083,     -0.48199, 89.79099,50.00000,20.00000,4.63467
291.44199,10.08083,     -0.48850, 89.69959,50.00000,20.00000,4.63304
291.84698,10.09083,     -0.49512, 89.63577,50.00000,20.00000,4.63140
292.24701,10.10083,     -0.50177, 89.56741,50.00000,20.00000,4.62978
292.65302,10.11083,     -0.50852, 89.49699,50.00000,20.00000,4.62813
293.05600,10.12083,     -0.51533, 89.40559,50.00000,20.00000,4.62650
293.45801,10.13083,     -0.52210, 89.34177,50.00000,20.00000,4.62487
293.86301,10.14083,     -0.52902, 89.27125,50.00000,20.00000,4.62324
294.26901,10.15083,     -0.53590, 89.19748,50.00000,20.00000,4.62160
294.67401,10.16083,     -0.54289, 89.11051,50.00000,20.00000,4.61996
295.07901,10.17083,     -0.54997, 89.04442,50.00000,20.00000,4.61832
295.48300,10.18083,     -0.55690, 88.96848,50.00000,20.00000,4.61669
295.88901,10.19083,     -0.56399, 88.88151,50.00000,20.00000,4.61505
296.29599,10.20083,     -0.57135, 88.78460,50.00000,20.00000,4.61340
296.70401,10.21083,     -0.57865, 88.71408,50.00000,20.00000,4.61176
297.11099,10.22083,     -0.58619, 88.63597,50.00000,20.00000,4.61011
297.51901,10.23083,     -0.59364, 88.54457,50.00000,20.00000,4.60847
297.92401,10.24083,     -0.60119, 88.43997,50.00000,20.00000,4.60683
298.33499,10.25083,     -0.60884, 88.36620,50.00000,20.00000,4.60517
298.74399,10.26083,     -0.61673, 88.28682,50.00000,20.00000,4.60352
299.15302,10.27083,     -0.62452, 88.20655,50.00000,20.00000,4.60187
299.56299,10.28083,     -0.63225, 88.10303,50.00000,20.00000,4.60022
299.97601,10.29083,     -0.64008, 88.02818,50.00000,20.00000,4.59856
300.38699,10.30083,     -0.64842, 87.94554,50.00000,20.00000,4.59690
300.79300,10.31083,     -0.65665, 87.85089,50.00000,20.00000,4.59526
301.20801,10.32083,     -0.66497, 87.73743,50.00000,20.00000,4.59359
301.62000,10.33083,     -0.67345, 87.65706,50.00000,20.00000,4.59193
302.03400,10.34083,     -0.68192, 87.56684,50.00000,20.00000,4.59027
302.44800,10.35083,     -0.69042, 87.46657,50.00000,20.00000,4.58860
302.86301,10.36083,     -0.69911, 87.35094,50.00000,20.00000,4.58693
303.27399,10.37083,     -0.70790, 87.27057,50.00000,20.00000,4.58528
303.69299,10.38083,     -0.71686, 87.18144,50.00000,20.00000,4.58359
304.10901,10.39083,     -0.72582, 87.07901,50.00000,20.00000,4.58192
304.52600,10.40083,     -0.73486, 86.96889,50.00000,20.00000,4.58024
304.94299,10.41083,     -0.74399, 86.89187,50.00000,20.00000,4.57857
305.36200,10.42083,     -0.75329, 86.79604,50.00000,20.00000,4.57689
305.78000,10.43083,     -0.76280, 86.68809,50.00000,20.00000,4.57521
306.19901,10.44083,     -0.77230, 86.56586,50.00000,20.00000,4.57352
306.62000,10.45083,     -0.78192, 86.47889,50.00000,20.00000,4.57183
307.04199,10.46083,     -0.79163, 86.38089,50.00000,20.00000,4.57014
307.46201,10.47083,     -0.80146, 86.26970,50.00000,20.00000,4.56846
307.88501,10.48083,     -0.81135, 86.14313,50.00000,20.00000,4.56676
308.30801,10.49083,     -0.82143, 86.05282,50.00000,20.00000,4.56506
308.73199,10.50083,     -0.83144, 85.95265,50.00000,20.00000,4.56336
309.15701,10.51083,     -0.84153, 85.83810,50.00000,20.00000,4.56166
309.57999,10.52083,     -0.85198, 85.70603,50.00000,20.00000,4.55997
310.00800,10.53083,     -0.86249, 85.61236,50.00000,20.00000,4.55825
310.43399,10.54083,     -0.87290, 85.50885,50.00000,20.00000,4.55654
310.86200,10.55083,     -0.88339, 85.38997,50.00000,20.00000,4.55483
311.29099,10.56083,     -0.89409, 85.25671,50.00000,20.00000,4.55311
311.71899,10.57083,     -0.90495, 85.16205,50.00000,20.00000,4.55140
312.14899,10.58083,     -0.91576, 85.05637,50.00000,20.00000,4.54968
312.57800,10.59083,     -0.92671, 84.93523,50.00000,20.00000,4.54797
313.01001,10.60083,     -0.93774, 84.78985,50.00000,20.00000,4.54624
313.44101,10.61083,     -0.94881, 84.69077,50.00000,20.00000,4.54452
313.87500,10.62083,     -0.95998, 84.57957,50.00000,20.00000,4.54278
314.30801,10.63083,     -0.97087, 84.45301,50.00000,20.00000,4.54105
314.74200,10.64083,     -0.98231, 84.30763,50.00000,20.00000,4.53932
315.17700,10.65083,     -0.99368, 84.20304,50.00000,20.00000,4.53758
315.61401,10.66083,     -1.00500, 84.08632,50.00000,20.00000,4.53584
316.05099,10.67083,     -1.01642, 83.95415,50.00000,20.00000,4.53410
316.48801,10.68083,     -1.02766, 83.80552,50.00000,20.00000,4.53235
316.92599,10.69083,     -1.03897, 83.69984,50.00000,20.00000,4.53061
317.36600,10.70083,     -1.05055, 83.58204,50.00000,20.00000,4.52885
317.80801,10.71083,     -1.06216, 83.44987,50.00000,20.00000,4.52709
318.24799,10.72083,     -1.07354, 83.29681,50.00000,20.00000,4.52534
318.68799,10.73083,     -1.08501, 83.18679,50.00000,20.00000,4.52358
319.13300,10.74083,     -1.09644, 83.06456,50.00000,20.00000,4.52181
319.57599,10.75083,     -1.10799, 82.92687,50.00000,20.00000,4.52005
320.01999,10.76083,     -1.11943, 82.76830,50.00000,20.00000,4.51828
320.46399,10.77083,     -1.13089, 82.65494,50.00000,20.00000,4.51652
320.90900,10.78083,     -1.14216, 82.52719,50.00000,20.00000,4.51475
321.35800,10.79083,     -1.15364, 82.38073,50.00000,20.00000,4.51296
321.80499,10.80083,     -1.16497, 82.21231,50.00000,20.00000,4.51118
322.25500,10.81083,     -1.17611, 82.09343,50.00000,20.00000,4.50940
322.70700,10.82083,     -1.18762, 81.96126,50.00000,20.00000,4.50760
323.15601,10.83083,     -1.19901, 81.81263,50.00000,20.00000,4.50582
323.60599,10.84083,     -1.21013, 81.64411,50.00000,20.00000,4.50403
324.06000,10.85083,     -1.22103, 81.52415,50.00000,20.00000,4.50223
324.51099,10.86083,     -1.23197, 81.38980,50.00000,20.00000,4.50044
324.96600,10.87083,     -1.24297, 81.23566,50.00000,20.00000,4.49864
325.42001,10.88083,     -1.25389, 81.06173,50.00000,20.00000,4.49684
325.87701,10.89083,     -1.26485, 80.93615,50.00000,20.00000,4.49503
326.33099,10.90083,     -1.27550, 80.79422,50.00000,20.00000,4.49323
326.79001,10.91083,     -1.28607, 80.63447,50.00000,20.00000,4.49141
327.24799,10.92083,     -1.29682, 80.45718,50.00000,20.00000,4.48960
327.70801,10.93083,     -1.30746, 80.33170,50.00000,20.00000,4.48777
328.16699,10.94083,     -1.31766, 80.19184,50.00000,20.00000,4.48596
328.63000,10.95083,     -1.32791, 80.03110,50.00000,20.00000,4.48413
329.09201,10.96083,     -1.33814, 79.84614,50.00000,20.00000,4.48230
329.55399,10.97083,     -1.34818, 79.71288,50.00000,20.00000,4.48047
330.01599,10.98083,     -1.35803, 79.56533,50.00000,20.00000,4.47865
330.47900,10.99083,     -1.36795, 79.39800,50.00000,20.00000,4.47682
330.94400,11.00083,     -1.37769, 79.20751,50.00000,20.00000,4.47498
331.40900,11.01083,     -1.38738, 79.07317,50.00000,20.00000,4.47315
331.87701,11.02083,     -1.39678, 78.92454,50.00000,20.00000,4.47130
332.34500,11.03083,     -1.40611, 78.75602,50.00000,20.00000,4.46945
332.81299,11.04083,     -1.41544, 78.56446,50.00000,20.00000,4.46761
333.28400,11.05083,     -1.42458, 78.42795,50.00000,20.00000,4.46575
333.75400,11.06083,     -1.43352, 78.27381,50.00000,20.00000,4.46390
334.22299,11.07083,     -1.44233, 78.09652,50.00000,20.00000,4.46205
334.69601,11.08083,     -1.45107, 77.89284,50.00000,20.00000,4.46019
335.16800,11.09083,     -1.45961, 77.74421,50.00000,20.00000,4.45833
335.64099,11.10083,     -1.46815, 77.58013,50.00000,20.00000,4.45647
336.11301,11.11083,     -1.47667, 77.39289,50.00000,20.00000,4.45461
336.59000,11.12083,     -1.48490, 77.17493,50.00000,20.00000,4.45273
337.06601,11.13083,     -1.49301, 77.02739,50.00000,20.00000,4.45086
337.54199,11.14083,     -1.50103, 76.86557,50.00000,20.00000,4.44899
338.02100,11.15083,     -1.50907, 76.68385,50.00000,20.00000,4.44711
338.49701,11.16083,     -1.51691, 76.47357,50.00000,20.00000,4.44524
338.97699,11.17083,     -1.52448, 76.32494,50.00000,20.00000,4.44336
339.45700,11.18083,     -1.53200, 76.15869,50.00000,20.00000,4.44147
339.93600,11.19083,     -1.53925, 75.96929,50.00000,20.00000,4.43959
340.41800,11.20083,     -1.54652, 75.75241,50.00000,20.00000,4.43770
340.89999,11.21083,     -1.55370, 75.59827,50.00000,20.00000,4.43581
341.38199,11.22083,     -1.56103, 75.42531,50.00000,20.00000,4.43393
341.86600,11.23083,     -1.56817, 75.22823,50.00000,20.00000,4.43203
342.35001,11.24083,     -1.57524, 75.00259,50.00000,20.00000,4.43013
342.83600,11.25083,     -1.58216, 74.84066,50.00000,20.00000,4.42823
343.32001,11.26083,     -1.58869, 74.66121,50.00000,20.00000,4.42634
343.80499,11.27083,     -1.59537, 74.45861,50.00000,20.00000,4.42444
344.29501,11.28083,     -1.60196, 74.22194,50.00000,20.00000,4.42253
344.78201,11.29083,     -1.60837, 74.05125,50.00000,20.00000,4.42062
345.27100,11.30083,     -1.61468, 73.86953,50.00000,20.00000,4.41871
345.75900,11.31083,     -1.62079, 73.66260,50.00000,20.00000,4.41681
346.24899,11.32083,     -1.62658, 73.42691,50.00000,20.00000,4.41489
346.74100,11.33083,     -1.63231, 73.25957,50.00000,20.00000,4.41297
347.23199,11.34083,     -1.63804, 73.07352,50.00000,20.00000,4.41106
347.72299,11.35083,     -1.64348, 72.86205,50.00000,20.00000,4.40914
348.21500,11.36083,     -1.64907, 72.62203,50.00000,20.00000,4.40722
348.70999,11.37083,     -1.65452, 72.45134,50.00000,20.00000,4.40530
349.20499,11.38083,     -1.65957, 72.25869,50.00000,20.00000,4.40337
349.69699,11.39083,     -1.66460, 72.04181,50.00000,20.00000,4.40145
350.19601,11.40083,     -1.66957, 71.79627,50.00000,20.00000,4.39951
350.69199,11.41083,     -1.67449, 71.62224,50.00000,20.00000,4.39758
351.18799,11.42083,     -1.67924, 71.42742,50.00000,20.00000,4.39565
351.68600,11.43083,     -1.68366, 71.20384,50.00000,20.00000,4.39371
352.18201,11.44083,     -1.68811, 70.95170,50.00000,20.00000,4.39179
352.68201,11.45083,     -1.69254, 70.77116,50.00000,20.00000,4.38984
353.18100,11.46083,     -1.69637, 70.57073,50.00000,20.00000,4.38791
353.68100,11.47083,     -1.70042, 70.34391,50.00000,20.00000,4.38597
354.18100,11.48083,     -1.70448, 70.15342,50.00000,20.00000,4.38403
354.67999,11.49083,     -1.70826, 69.92659,50.00000,20.00000,4.38209
355.18301,11.50083,     -1.71222, 69.68332,50.00000,20.00000,4.38014
355.68399,11.51083,     -1.71564, 69.43000,50.00000,20.00000,4.37820
356.18799,11.52083,     -1.71914, 69.15254,50.00000,20.00000,4.37625
356.69000,11.53083,     -1.72251, 68.85973,50.00000,20.00000,4.37430
357.19501,11.54083,     -1.72571, 68.64501,50.00000,20.00000,4.37235
357.70001,11.55083,     -1.72875, 68.39612,50.00000,20.00000,4.37040
358.20401,11.56083,     -1.73151, 68.18249,50.00000,20.00000,4.36845
358.70999,11.57083,     -1.73451, 67.93370,50.00000,20.00000,4.36649
359.21399,11.58083,     -1.73721, 67.71899,50.00000,20.00000,4.36454
359.72101,11.59083,     -1.73971, 67.46685,50.00000,20.00000,4.36259
360.22501,11.60083,     -1.74204, 67.24997,50.00000,20.00000,4.36064
360.73499,11.61083,     -1.74426, 66.99783,50.00000,20.00000,4.35867
361.24399,11.62083,     -1.74663, 66.77977,50.00000,20.00000,4.35671
361.75201,11.63083,     -1.74864, 66.52428,50.00000,20.00000,4.35475
362.25900,11.64083,     -1.75050, 66.30297,50.00000,20.00000,4.35280
362.76700,11.65083,     -1.75208, 66.04315,50.00000,20.00000,4.35084
363.27701,11.66083,     -1.75370, 65.81523,50.00000,20.00000,4.34887
363.78400,11.67083,     -1.75518, 65.54113,50.00000,20.00000,4.34692
364.29700,11.68083,     -1.75648, 65.31312,50.00000,20.00000,4.34495
364.80801,11.69083,     -1.75750, 65.05113,50.00000,20.00000,4.34298
365.31900,11.70083,     -1.75848, 64.82322,50.00000,20.00000,4.34102
365.82999,11.71083,     -1.75938, 64.55453,50.00000,20.00000,4.33906
366.34299,11.72083,     -1.76024, 64.32002,50.00000,20.00000,4.33708
366.85300,11.73083,     -1.76072, 64.04691,50.00000,20.00000,4.33513
367.36700,11.74083,     -1.76105, 63.80915,50.00000,20.00000,4.33315
367.88101,11.75083,     -1.76165, 63.53169,50.00000,20.00000,4.33118
368.39499,11.76083,     -1.76205, 63.29157,50.00000,20.00000,4.32921
368.90799,11.77083,     -1.76189, 63.01087,50.00000,20.00000,4.32725
369.42200,11.78083,     -1.76174, 62.77734,50.00000,20.00000,4.32528
369.93701,11.79083,     -1.76147, 62.49664,50.00000,20.00000,4.32330
370.45401,11.80083,     -1.76081, 62.25110,50.00000,20.00000,4.32132
370.97101,11.81083,     -1.76009, 61.96370,50.00000,20.00000,4.31935
371.48599,11.82083,     -1.75910, 61.71372,50.00000,20.00000,4.31738
372.00299,11.83083,     -1.75792, 61.42307,50.00000,20.00000,4.31540
372.51901,11.84083,     -1.75646, 61.17093,50.00000,20.00000,4.31343
373.03601,11.85083,     -1.75519, 60.87368,50.00000,20.00000,4.31145
373.55200,11.86083,     -1.75390, 60.61711,50.00000,20.00000,4.30948
374.06900,11.87083,     -1.75229, 60.31651,50.00000,20.00000,4.30751
374.58499,11.88083,     -1.75063, 60.05669,50.00000,20.00000,4.30554
375.10599,11.89083,     -1.74898, 59.75501,50.00000,20.00000,4.30356
375.62201,11.90083,     -1.74697, 59.49509,50.00000,20.00000,4.30159
376.14200,11.91083,     -1.74475, 59.19124,50.00000,20.00000,4.29961
376.66101,11.92083,     -1.74221, 58.92807,50.00000,20.00000,4.29764
377.18100,11.93083,     -1.73971, 58.61871,50.00000,20.00000,4.29566
377.69901,11.94083,     -1.73709, 58.34894,50.00000,20.00000,4.29369
378.21799,11.95083,     -1.73425, 58.03839,50.00000,20.00000,4.29171
378.73801,11.96083,     -1.73112, 57.76419,50.00000,20.00000,4.28974
379.25800,11.97083,     -1.72819, 57.43936,50.00000,20.00000,4.28776
379.77802,11.98083,     -1.72465, 57.15856,50.00000,20.00000,4.28579
380.29700,11.99083,     -1.72139, 56.83048,50.00000,20.00000,4.28382
380.81799,12.00083,     -1.71815, 56.54751,50.00000,20.00000,4.28184
381.33701,12.01083,     -1.71471, 56.21934,50.00000,20.00000,4.27987
381.85901,12.02083,     -1.71094, 55.93637,50.00000,20.00000,4.27790
382.37900,12.03083,     -1.70698, 55.60613,50.00000,20.00000,4.27593
382.89999,12.04083,     -1.70234, 55.31873,50.00000,20.00000,4.27395
383.42001,12.05083,     -1.69739, 54.98070,50.00000,20.00000,4.27199
383.93900,12.06083,     -1.69266, 54.68562,50.00000,20.00000,4.27002
384.45801,12.07083,     -1.68789, 54.34208,50.00000,20.00000,4.26806
384.98199,12.08083,     -1.68281, 54.04148,50.00000,20.00000,4.26608
385.50201,12.09083,     -1.67798, 53.69026,50.00000,20.00000,4.26412
386.02200,12.10083,     -1.67327, 53.38749,50.00000,20.00000,4.26215
386.54199,12.11083,     -1.66841, 53.03184,50.00000,20.00000,4.26019
387.06601,12.12083,     -1.66329, 52.72129,50.00000,20.00000,4.25821
387.58600,12.13083,     -1.65836, 52.35027,50.00000,20.00000,4.25625
388.10800,12.14083,     -1.65398, 51.86579,50.00000,20.00000,4.25429
388.62601,12.15083,     -1.64972, 51.51900,50.00000,20.00000,4.25234
389.14899,12.16083,     -1.64549, 51.17102,50.00000,20.00000,4.25037
389.66901,12.17083,     -1.64104, 50.82315,50.00000,20.00000,4.24841
390.19299,12.18083,     -1.63644, 50.47852,50.00000,20.00000,4.24644
390.71100,12.19083,     -1.63165, 50.13823,50.00000,20.00000,4.24449
391.23300,12.20083,     -1.62637, 49.78593,50.00000,20.00000,4.24253
391.75299,12.21083,     -1.62090, 49.43244,50.00000,20.00000,4.24058
392.27600,12.22083,     -1.61532, 49.07570,50.00000,20.00000,4.23861
392.79501,12.23083,     -1.61049, 48.71788,50.00000,20.00000,4.23667
393.31601,12.24083,     -1.60602, 48.35671,50.00000,20.00000,4.23471
393.83801,12.25083,     -1.60214, 47.99445,50.00000,20.00000,4.23276
394.35800,12.26083,     -1.59816, 47.62885,50.00000,20.00000,4.23081
394.87900,12.27083,     -1.59401, 47.26226,50.00000,20.00000,4.22886
395.39700,12.28083,     -1.59022, 46.89341,50.00000,20.00000,4.22692
395.91800,12.29083,     -1.58740, 46.52012,50.00000,20.00000,4.22497
396.44101,12.30083,     -1.58459, 46.14467,50.00000,20.00000,4.22301
396.96100,12.31083,     -1.58178, 45.76922,50.00000,20.00000,4.22107
397.48199,12.32083,     -1.57900, 45.39258,50.00000,20.00000,4.21912
398.00000,12.33083,     -1.57631, 45.02048,50.00000,20.00000,4.21719
398.52100,12.34083,     -1.57395, 44.64060,50.00000,20.00000,4.21524
399.04099,12.35083,     -1.57180, 44.26406,50.00000,20.00000,4.21330
399.56299,12.36083,     -1.56971, 43.88861,50.00000,20.00000,4.21136
400.08200,12.37083,     -1.56820, 43.51198,50.00000,20.00000,4.20942
400.60001,12.38083,     -1.56722, 43.13652,50.00000,20.00000,4.20749
401.12000,12.39083,     -1.56657, 42.76324,50.00000,20.00000,4.20556
401.63901,12.40083,     -1.56596, 42.39113,50.00000,20.00000,4.20363
402.15900,12.41083,     -1.56575, 42.01893,50.00000,20.00000,4.20169
402.67801,12.42083,     -1.56640, 41.64900,50.00000,20.00000,4.19976
403.19699,12.43083,     -1.56771, 41.27906,50.00000,20.00000,4.19784
403.71600,12.44083,     -1.56949, 40.91237,50.00000,20.00000,4.19591
404.23199,12.45083,     -1.57194, 40.55573,50.00000,20.00000,4.19399
404.75000,12.46083,     -1.57510, 40.19890,50.00000,20.00000,4.19207
405.26801,12.47083,     -1.57891, 39.84107,50.00000,20.00000,4.19015
405.78601,12.48083,     -1.58360, 39.48758,50.00000,20.00000,4.18823
406.30301,12.49083,     -1.58863, 39.13961,50.00000,20.00000,4.18631
406.82199,12.50083,     -1.59489, 38.79499,50.00000,20.00000,4.18439
407.33899,12.51083,     -1.60236, 38.45588,50.00000,20.00000,4.18248
407.85599,12.52083,     -1.61062, 38.12337,50.00000,20.00000,4.18057
408.37100,12.53083,     -1.61966, 37.80297,50.00000,20.00000,4.17866
408.88800,12.54083,     -1.63007, 37.49026,50.00000,20.00000,4.17675
409.40399,12.55083,     -1.64093, 37.17538,50.00000,20.00000,4.17485
409.92001,12.56083,     -1.65300, 36.86927,50.00000,20.00000,4.17294
410.43201,12.57083,     -1.66607, 36.57192,50.00000,20.00000,4.17105
410.95001,12.58083,     -1.67978, 36.28462,50.00000,20.00000,4.16914
411.46799,12.59083,     -1.69452, 36.00825,50.00000,20.00000,4.16723
411.98099,12.60083,     -1.70998, 35.74281,50.00000,20.00000,4.16534
412.49399,12.61083,     -1.72649, 35.49067,50.00000,20.00000,4.16345
413.01099,12.62083,     -1.74342, 35.30137,50.00000,20.00000,4.16155
413.52399,12.63083,     -1.76125, 35.08991,50.00000,20.00000,4.15966
414.03900,12.64083,     -1.77960, 34.89834,50.00000,20.00000,4.15777
414.55099,12.65083,     -1.79849, 34.68363,50.00000,20.00000,4.15589
415.06601,12.66083,     -1.81777, 34.47660,50.00000,20.00000,4.15400
415.57999,12.67083,     -1.83755, 34.28946,50.00000,20.00000,4.15211
416.09299,12.68083,     -1.85745, 34.12882,50.00000,20.00000,4.15023
416.60699,12.69083,     -1.87775, 33.97242,50.00000,20.00000,4.14834
417.12100,12.70083,     -1.89815, 33.79513,50.00000,20.00000,4.14646
417.63199,12.71083,     -1.91845, 33.66630,50.00000,20.00000,4.14459
418.14600,12.72083,     -1.93862, 33.53196,50.00000,20.00000,4.14270
418.66000,12.73083,     -1.95870, 33.39220,50.00000,20.00000,4.14082
419.16901,12.74083,     -1.97855, 33.24348,50.00000,20.00000,4.13896
419.68201,12.75083,     -1.99776, 33.14439,50.00000,20.00000,4.13709
420.19699,12.76083,     -2.01704, 33.04206,50.00000,20.00000,4.13520
420.70700,12.77083,     -2.03569, 32.94179,50.00000,20.00000,4.13334
421.22000,12.78083,     -2.05393, 32.83395,50.00000,20.00000,4.13147
421.73099,12.79083,     -2.07163, 32.76017,50.00000,20.00000,4.12960
422.24301,12.80083,     -2.08888, 32.68197,50.00000,20.00000,4.12774
422.75500,12.81083,     -2.10560, 32.60052,50.00000,20.00000,4.12587
423.26501,12.82083,     -2.12182, 32.51345,50.00000,20.00000,4.12401
423.77399,12.83083,     -2.13755, 32.45514,50.00000,20.00000,4.12216
424.28799,12.84083,     -2.15281, 32.39457,50.00000,20.00000,4.12029
424.79800,12.85083,     -2.16730, 32.32967,50.00000,20.00000,4.11843
425.30701,12.86083,     -2.18136, 32.25914,50.00000,20.00000,4.11658
425.81400,12.87083,     -2.19490, 32.21177,50.00000,20.00000,4.11474
426.32599,12.88083,     -2.20830, 32.16006,50.00000,20.00000,4.11288
426.83499,12.89083,     -2.22113, 32.10284,50.00000,20.00000,4.11103
427.34500,12.90083,     -2.23360, 32.04325,50.00000,20.00000,4.10918
427.85400,12.91083,     -2.24536, 32.01026,50.00000,20.00000,4.10734
428.36200,12.92083,     -2.25707, 31.96406,50.00000,20.00000,4.10549
428.87201,12.93083,     -2.26866, 31.91452,50.00000,20.00000,4.10365
429.37900,12.94083,     -2.28015, 31.86055,50.00000,20.00000,4.10181
429.88599,12.95083,     -2.29107, 31.82312,50.00000,20.00000,4.09998
430.39301,12.96083,     -2.30146, 31.78894,50.00000,20.00000,4.09814
430.89899,12.97083,     -2.31155, 31.75043,50.00000,20.00000,4.09631
431.40799,12.98083,     -2.32127, 31.69872,50.00000,20.00000,4.09447
431.91599,12.99083,     -2.33085, 31.66120,50.00000,20.00000,4.09264
432.42001,13.00083,     -2.33999, 31.62269,50.00000,20.00000,4.09082
432.92801,13.01083,     -2.34898, 31.57975,50.00000,20.00000,4.08899
433.43500,13.02083,     -2.35751, 31.53129,50.00000,20.00000,4.08716
433.93900,13.03083,     -2.36580, 31.49494,50.00000,20.00000,4.08534
434.44400,13.04083,     -2.37348, 31.45427,50.00000,20.00000,4.08352
434.95099,13.05083,     -2.38071, 31.40906,50.00000,20.00000,4.08170
435.45499,13.06083,     -2.38788, 31.36621,50.00000,20.00000,4.07988
435.95901,13.07083,     -2.39510, 31.33204,50.00000,20.00000,4.07807
436.46301,13.08083,     -2.40184, 31.29235,50.00000,20.00000,4.07626
436.97101,13.09083,     -2.40867, 31.25049,50.00000,20.00000,4.07444
437.47198,13.10083,     -2.41518, 31.20538,50.00000,20.00000,4.07264
437.97400,13.11083,     -2.42129, 31.17347,50.00000,20.00000,4.07084
438.47601,13.12083,     -2.42714, 31.13929,50.00000,20.00000,4.06903
438.97601,13.13083,     -2.43296, 31.09635,50.00000,20.00000,4.06724
439.48199,13.14083,     -2.43859, 31.04572,50.00000,20.00000,4.06543
439.98499,13.15083,     -2.44396, 31.00829,50.00000,20.00000,4.06363
440.48599,13.16083,     -2.44883, 30.96752,50.00000,20.00000,4.06183
440.98499,13.17083,     -2.45365, 30.92458,50.00000,20.00000,4.06005
441.48801,13.18083,     -2.45848, 30.88173,50.00000,20.00000,4.05825
441.98901,13.19083,     -2.46312, 30.86184,50.00000,20.00000,4.05646
442.48999,13.20083,     -2.46752, 30.82766,50.00000,20.00000,4.05467
442.98999,13.21083,     -2.47165, 30.79023,50.00000,20.00000,4.05288
443.48999,13.22083,     -2.47548, 30.74177,50.00000,20.00000,4.05110
443.98801,13.23083,     -2.47926, 30.70553,50.00000,20.00000,4.04932
444.48901,13.24083,     -2.48325, 30.66475,50.00000,20.00000,4.04754
444.98801,13.25083,     -2.48685, 30.61964,50.00000,20.00000,4.04576
445.48499,13.26083,     -2.49032, 30.57119,50.00000,20.00000,4.04399
445.98401,13.27083,     -2.49347, 30.53593,50.00000,20.00000,4.04222
446.48199,13.28083,     -2.49695, 30.49958,50.00000,20.00000,4.04044
446.98099,13.29083,     -2.50043, 30.45999,50.00000,20.00000,4.03867
447.47800,13.30083,     -2.50355, 30.41478,50.00000,20.00000,4.03690
447.97800,13.31083,     -2.50595, 30.38070,50.00000,20.00000,4.03513
448.47501,13.32083,     -2.50847, 30.34436,50.00000,20.00000,4.03336
448.97000,13.33083,     -2.51092, 30.31018,50.00000,20.00000,4.03161
449.46701,13.34083,     -2.51336, 30.26172,50.00000,20.00000,4.02985
449.96399,13.35083,     -2.51556, 30.22764,50.00000,20.00000,4.02808
450.45999,13.36083,     -2.51778, 30.19682,50.00000,20.00000,4.02633
450.95300,13.37083,     -2.51986, 30.16372,50.00000,20.00000,4.02458
451.45099,13.38083,     -2.52164, 30.12413,50.00000,20.00000,4.02282
451.94601,13.39083,     -2.52296, 30.09330,50.00000,20.00000,4.02107
452.44101,13.40083,     -2.52460, 30.06021,50.00000,20.00000,4.01932
452.93500,13.41083,     -2.52616, 30.02278,50.00000,20.00000,4.01757
453.42899,13.42083,     -2.52765, 29.97659,50.00000,20.00000,4.01583
453.92599,13.43083,     -2.52915, 29.94133,50.00000,20.00000,4.01408
454.41901,13.44083,     -2.53000, 29.90607,50.00000,20.00000,4.01234
454.91199,13.45083,     -2.53071, 29.87091,50.00000,20.00000,4.01060
455.40500,13.46083,     -2.53161, 29.84008,50.00000,20.00000,4.00886
455.89700,13.47083,     -2.53232, 29.80817,50.00000,20.00000,4.00713
456.39001,13.48083,     -2.53276, 29.77291,50.00000,20.00000,4.00539
456.88400,13.49083,     -2.53333, 29.73548,50.00000,20.00000,4.00366
457.37500,13.50083,     -2.53337, 29.69254,50.00000,20.00000,4.00193
457.86700,13.51083,     -2.53355, 29.66171,50.00000,20.00000,4.00020
458.35800,13.52083,     -2.53387, 29.62871,50.00000,20.00000,3.99848
458.85101,13.53083,     -2.53401, 29.59345,50.00000,20.00000,3.99675
459.34299,13.54083,     -2.53439, 29.55159,50.00000,20.00000,3.99502
459.83301,13.55083,     -2.53448, 29.51968,50.00000,20.00000,3.99330
460.32501,13.56083,     -2.53461, 29.48442,50.00000,20.00000,3.99158
460.81201,13.57083,     -2.53451, 29.44483,50.00000,20.00000,3.98987
461.30399,13.58083,     -2.53444, 29.40189,50.00000,20.00000,3.98815
461.79599,13.59083,     -2.53438, 29.37982,50.00000,20.00000,3.98643
462.28500,13.60083,     -2.53411, 29.35560,50.00000,20.00000,3.98472
462.77399,13.61083,     -2.53362, 29.32043,50.00000,20.00000,3.98301
463.26501,13.62083,     -2.53333, 29.28074,50.00000,20.00000,3.98129
463.75299,13.63083,     -2.53281, 29.25100,50.00000,20.00000,3.97959
464.23999,13.64083,     -2.53229, 29.21800,50.00000,20.00000,3.97789
464.72900,13.65083,     -2.53163, 29.18057,50.00000,20.00000,3.97618
465.21701,13.66083,     -2.53092, 29.13980,50.00000,20.00000,3.97448
465.70599,13.67083,     -2.53042, 29.11232,50.00000,20.00000,3.97278
466.19299,13.68083,     -2.52987, 29.08041,50.00000,20.00000,3.97108
466.68399,13.69083,     -2.52933, 29.04406,50.00000,20.00000,3.96937
467.17001,13.70083,     -2.52871, 29.00437,50.00000,20.00000,3.96768
467.65799,13.71083,     -2.52797, 28.97798,50.00000,20.00000,3.96598
468.14401,13.72083,     -2.52713, 28.94715,50.00000,20.00000,3.96430
468.63101,13.73083,     -2.52616, 28.91405,50.00000,20.00000,3.96260
469.11801,13.74083,     -2.52531, 28.87663,50.00000,20.00000,3.96091
469.60501,13.75083,     -2.52454, 28.84698,50.00000,20.00000,3.95922
470.09201,13.76083,     -2.52378, 28.81497,50.00000,20.00000,3.95753
470.57800,13.77083,     -2.52303, 28.78858,50.00000,20.00000,3.95585
471.06400,13.78083,     -2.52194, 28.75991,50.00000,20.00000,3.95417
471.54800,13.79083,     -2.52120, 28.73460,50.00000,20.00000,3.95249
472.03299,13.80083,     -2.52006, 28.70929,50.00000,20.00000,3.95081
472.52100,13.81083,     -2.51905, 28.68063,50.00000,20.00000,3.94912
473.00400,13.82083,     -2.51808, 28.64547,50.00000,20.00000,3.94745
473.48801,13.83083,     -2.51684, 28.62006,50.00000,20.00000,3.94578
473.97400,13.84083,     -2.51572, 28.59149,50.00000,20.00000,3.94410
474.46100,13.85083,     -2.51458, 28.56066,50.00000,20.00000,3.94242
474.94699,13.86083,     -2.51308, 28.52757,50.00000,20.00000,3.94075
475.43100,13.87083,     -2.51164, 28.50452,50.00000,20.00000,3.93908
475.91599,13.88083,     -2.51015, 28.48138,50.00000,20.00000,3.93741
476.39899,13.89083,     -2.50833, 28.45272,50.00000,20.00000,3.93574
476.88300,13.90083,     -2.50653, 28.41421,50.00000,20.00000,3.93408
477.37000,13.91083,     -2.50484, 28.38663,50.00000,20.00000,3.93240
477.85001,13.92083,     -2.50312, 28.35807,50.00000,20.00000,3.93075
478.33499,13.93083,     -2.50153, 28.32724,50.00000,20.00000,3.92909
478.82001,13.94083,     -2.49987, 28.29414,50.00000,20.00000,3.92742
479.30399,13.95083,     -2.49802, 28.27218,50.00000,20.00000,3.92576
479.78601,13.96083,     -2.49616, 28.24904,50.00000,20.00000,3.92411
480.27100,13.97083,     -2.49452, 28.22037,50.00000,20.00000,3.92244
480.75201,13.98083,     -2.49279, 28.19506,50.00000,20.00000,3.92079
481.23700,13.99083,     -2.49125, 28.17852,50.00000,20.00000,3.91913
481.72198,14.00083,     -2.48972, 28.15320,50.00000,20.00000,3.91747
482.20499,14.01083,     -2.48791, 28.12464,50.00000,20.00000,3.91582
482.68900,14.02083,     -2.48603, 28.09263,50.00000,20.00000,3.91416
483.17200,14.03083,     -2.48421, 28.06850,50.00000,20.00000,3.91251
483.65500,14.04083,     -2.48257, 28.04092,50.00000,20.00000,3.91086
484.13901,14.05083,     -2.48099, 28.00793,50.00000,20.00000,3.90921
484.62601,14.06083,     -2.47914, 27.98035,50.00000,20.00000,3.90755
485.10999,14.07083,     -2.47734, 27.96498,50.00000,20.00000,3.90590
485.59299,14.08083,     -2.47548, 27.94184,50.00000,20.00000,3.90425
486.07800,14.09083,     -2.47356, 27.91653,50.00000,20.00000,3.90260
486.56201,14.10083,     -2.47187, 27.88452,50.00000,20.00000,3.90095
487.04401,14.11083,     -2.47023, 27.86255,50.00000,20.00000,3.89931
487.53000,14.12083,     -2.46868, 27.83832,50.00000,20.00000,3.89766
488.01501,14.13083,     -2.46695, 27.80966,50.00000,20.00000,3.89601
488.49799,14.14083,     -2.46515, 27.77667,50.00000,20.00000,3.89437
488.98199,14.15083,     -2.46345, 27.75460,50.00000,20.00000,3.89272
489.46799,14.16083,     -2.46173, 27.73264,50.00000,20.00000,3.89107
489.95200,14.17083,     -2.46007, 27.70733,50.00000,20.00000,3.88943
490.43701,14.18083,     -2.45838, 27.67758,50.00000,20.00000,3.88779
490.92200,14.19083,     -2.45671, 27.65887,50.00000,20.00000,3.88615
491.40799,14.20083,     -2.45501, 27.63681,50.00000,20.00000,3.88450
491.89200,14.21083,     -2.45339, 27.61041,50.00000,20.00000,3.88286
492.37399,14.22083,     -2.45177, 27.58845,50.00000,20.00000,3.88123
492.86099,14.23083,     -2.45014, 27.57299,50.00000,20.00000,3.87958
493.34698,14.24083,     -2.44856, 27.55201,50.00000,20.00000,3.87794
493.83099,14.25083,     -2.44705, 27.52886,50.00000,20.00000,3.87631
494.31699,14.26083,     -2.44564, 27.50463,50.00000,20.00000,3.87467
494.80200,14.27083,     -2.44437, 27.48710,50.00000,20.00000,3.87303
495.28699,14.28083,     -2.44263, 27.46720,50.00000,20.00000,3.87140
495.77200,14.29083,     -2.44108, 27.44081,50.00000,20.00000,3.86976
496.25900,14.30083,     -2.43992, 27.40890,50.00000,20.00000,3.86812
496.74399,14.31083,     -2.43852, 27.38792,50.00000,20.00000,3.86649
497.22800,14.32083,     -2.43717, 27.36595,50.00000,20.00000,3.86486
497.71701,14.33083,     -2.43578, 27.34281,50.00000,20.00000,3.86321
498.20099,14.34083,     -2.43439, 27.31750,50.00000,20.00000,3.86159
498.68500,14.35083,     -2.43310, 27.30322,50.00000,20.00000,3.85996
499.17001,14.36083,     -2.43163, 27.28007,50.00000,20.00000,3.85833
499.65601,14.37083,     -2.43058, 27.25476,50.00000,20.00000,3.85670
500.14200,14.38083,     -2.42948, 27.23269,50.00000,20.00000,3.85507
500.62701,14.39083,     -2.42832, 27.20738,50.00000,20.00000,3.85345
501.11401,14.40083,     -2.42705, 27.17439,50.00000,20.00000,3.85182
501.60001,14.41083,     -2.42616, 27.15341,50.00000,20.00000,3.85019
502.08600,14.42083,     -2.42519, 27.13144,50.00000,20.00000,3.84856
502.57199,14.43083,     -2.42397, 27.11155,50.00000,20.00000,3.84694
503.05701,14.44083,     -2.42312, 27.09185,50.00000,20.00000,3.84532
503.54099,14.45083,     -2.42218, 27.08742,50.00000,20.00000,3.84370
504.02899,14.46083,     -2.42125, 27.06762,50.00000,20.00000,3.84207
504.51599,14.47083,     -2.42022, 27.05659,50.00000,20.00000,3.84045
505.00299,14.48083,     -2.41931, 27.03679,50.00000,20.00000,3.83882
505.49100,14.49083,     -2.41855, 27.01148,50.00000,20.00000,3.83720
505.97601,14.50083,     -2.41785, 26.99385,50.00000,20.00000,3.83558
506.46301,14.51083,     -2.41697, 26.96086,50.00000,20.00000,3.83396
506.95001,14.52083,     -2.41617, 26.94214,50.00000,20.00000,3.83234
507.43701,14.53083,     -2.41578, 26.92560,50.00000,20.00000,3.83072
507.92499,14.54083,     -2.41488, 26.89477,50.00000,20.00000,3.82910
508.40900,14.55083,     -2.41397, 26.88374,50.00000,20.00000,3.82749
508.89499,14.56083,     -2.41351, 26.86729,50.00000,20.00000,3.82588
509.38400,14.57083,     -2.41298, 26.84858,50.00000,20.00000,3.82425
509.87000,14.58083,     -2.41243, 26.83528,50.00000,20.00000,3.82264
510.35800,14.59083,     -2.41178, 26.80997,50.00000,20.00000,3.82102
510.84399,14.60083,     -2.41138, 26.79677,50.00000,20.00000,3.81941
511.32999,14.61083,     -2.41088, 26.78131,50.00000,20.00000,3.81781
511.82001,14.62083,     -2.41043, 26.76594,50.00000,20.00000,3.81618
512.31000,14.63083,     -2.41007, 26.75166,50.00000,20.00000,3.81456
512.79303,14.64083,     -2.40976, 26.72851,50.00000,20.00000,3.81297
513.28101,14.65083,     -2.40936, 26.71748,50.00000,20.00000,3.81135
513.76703,14.66083,     -2.40907, 26.69985,50.00000,20.00000,3.80975
514.25598,14.67083,     -2.40885, 26.68114,50.00000,20.00000,3.80814
514.74402,14.68083,     -2.40859, 26.66794,50.00000,20.00000,3.80653
515.23102,14.69083,     -2.40830, 26.64263,50.00000,20.00000,3.80492
515.72101,14.70083,     -2.40817, 26.63160,50.00000,20.00000,3.80331
516.20898,14.71083,     -2.40795, 26.61288,50.00000,20.00000,3.80170
516.69702,14.72083,     -2.40786, 26.59417,50.00000,20.00000,3.80010
517.18500,14.73083,     -2.40775, 26.58206,50.00000,20.00000,3.79849
517.67401,14.74083,     -2.40754, 26.56226,50.00000,20.00000,3.79688
518.16101,14.75083,     -2.40788, 26.55123,50.00000,20.00000,3.79528
518.65002,14.76083,     -2.40821, 26.53468,50.00000,20.00000,3.79368
519.13702,14.77083,     -2.40817, 26.51488,50.00000,20.00000,3.79208
519.62500,14.78083,     -2.40808, 26.50385,50.00000,20.00000,3.79048
520.11499,14.79083,     -2.40813, 26.47962,50.00000,20.00000,3.78887
520.60400,14.80083,     -2.40823, 26.46869,50.00000,20.00000,3.78727
521.09497,14.81083,     -2.40842, 26.44880,50.00000,20.00000,3.78566
521.58197,14.82083,     -2.40856, 26.42683,50.00000,20.00000,3.78407
522.06897,14.83083,     -2.40860, 26.41137,50.00000,20.00000,3.78248
522.56000,14.84083,     -2.40863, 26.38606,50.00000,20.00000,3.78087
523.04901,14.85083,     -2.40875, 26.37502,50.00000,20.00000,3.77928
523.53900,14.86083,     -2.40896, 26.35739,50.00000,20.00000,3.77768
524.02899,14.87083,     -2.40912, 26.33868,50.00000,20.00000,3.77608
524.52100,14.88083,     -2.40923, 26.32548,50.00000,20.00000,3.77447
525.00897,14.89083,     -2.40933, 26.29909,50.00000,20.00000,3.77288
525.49799,14.90083,     -2.40965, 26.28697,50.00000,20.00000,3.77129
525.98700,14.91083,     -2.40989, 26.26826,50.00000,20.00000,3.76970
526.47699,14.92083,     -2.41001, 26.24955,50.00000,20.00000,3.76810
526.96698,14.93083,     -2.41013, 26.24620,50.00000,20.00000,3.76651
527.45697,14.94083,     -2.41040, 26.22640,50.00000,20.00000,3.76492
527.94800,14.95083,     -2.41070, 26.21537,50.00000,20.00000,3.76332
528.43799,14.96083,     -2.41094, 26.19882,50.00000,20.00000,3.76173
528.92603,14.97083,     -2.41123, 26.17903,50.00000,20.00000,3.76015
529.41803,14.98083,     -2.41158, 26.16474,50.00000,20.00000,3.75855
529.90802,14.99083,     -2.41188, 26.14160,50.00000,20.00000,3.75697
530.40198,15.00083,     -2.41216, 26.13175,50.00000,20.00000,3.75537
530.88898,15.01083,     -2.41234, 26.11520,50.00000,20.00000,3.75379
531.38202,15.02083,     -2.41270, 26.09974,50.00000,20.00000,3.75219
531.87201,15.03083,     -2.41302, 26.08881,50.00000,20.00000,3.75061
532.36298,15.04083,     -2.41340, 26.07118,50.00000,20.00000,3.74902
532.85400,15.05083,     -2.41380, 26.06231,50.00000,20.00000,3.74744
533.34698,15.06083,     -2.41424, 26.04803,50.00000,20.00000,3.74585
533.83600,15.07083,     -2.41466, 26.03040,50.00000,20.00000,3.74427
534.33002,15.08083,     -2.41518, 26.01720,50.00000,20.00000,3.74267
534.82001,15.09083,     -2.41580, 25.99081,50.00000,20.00000,3.74110
535.31000,15.10083,     -2.41634, 25.97978,50.00000,20.00000,3.73952
535.80200,15.11083,     -2.41668, 25.96106,50.00000,20.00000,3.73793
536.29199,15.12083,     -2.41718, 25.94895,50.00000,20.00000,3.73636
536.78497,15.13083,     -2.41778, 25.94235,50.00000,20.00000,3.73477
537.27502,15.14083,     -2.41834, 25.91920,50.00000,20.00000,3.73320
537.76801,15.15083,     -2.41904, 25.91034,50.00000,20.00000,3.73162
538.25897,15.16083,     -2.41962, 25.89606,50.00000,20.00000,3.73004
538.75403,15.17083,     -2.42010, 25.87843,50.00000,20.00000,3.72845
539.24597,15.18083,     -2.42058, 25.86631,50.00000,20.00000,3.72687
539.73700,15.19083,     -2.42116, 25.84543,50.00000,20.00000,3.72530
540.22998,15.20083,     -2.42187, 25.83657,50.00000,20.00000,3.72372
540.71997,15.21083,     -2.42242, 25.82564,50.00000,20.00000,3.72215
541.21198,15.22083,     -2.42306, 25.81677,50.00000,20.00000,3.72058
541.70697,15.23083,     -2.42373, 25.80357,50.00000,20.00000,3.71900
542.20001,15.24083,     -2.42437, 25.78043,50.00000,20.00000,3.71742
542.69098,15.25083,     -2.42491, 25.77166,50.00000,20.00000,3.71585
543.18597,15.26083,     -2.42527, 25.75511,50.00000,20.00000,3.71428
543.67902,15.27083,     -2.42580, 25.73748,50.00000,20.00000,3.71270
544.17200,15.28083,     -2.42638, 25.72537,50.00000,20.00000,3.71113
544.66498,15.29083,     -2.42690, 25.70557,50.00000,20.00000,3.70956
545.15399,15.30083,     -2.42743, 25.69346,50.00000,20.00000,3.70800
545.64899,15.31083,     -2.42788, 25.66706,50.00000,20.00000,3.70643
546.14301,15.32083,     -2.42840, 25.65052,50.00000,20.00000,3.70486
546.63501,15.33083,     -2.42894, 25.63732,50.00000,20.00000,3.70329
547.13098,15.34083,     -2.42950, 25.61417,50.00000,20.00000,3.70172
547.62299,15.35083,     -2.43010, 25.60432,50.00000,20.00000,3.70016
548.11499,15.36083,     -2.43064, 25.58778,50.00000,20.00000,3.69859
548.60797,15.37083,     -2.43120, 25.57566,50.00000,20.00000,3.69703
549.10400,15.38083,     -2.43152, 25.57458,50.00000,20.00000,3.69546
549.59601,15.39083,     -2.43214, 25.55803,50.00000,20.00000,3.69390
550.09003,15.40083,     -2.43275, 25.54917,50.00000,20.00000,3.69234
550.58398,15.41083,     -2.43327, 25.53489,50.00000,20.00000,3.69077
551.07703,15.42083,     -2.43389, 25.52061,50.00000,20.00000,3.68921
551.57098,15.43083,     -2.43453, 25.50957,50.00000,20.00000,3.68765
552.06500,15.44083,     -2.43524, 25.48978,50.00000,20.00000,3.68609
552.55902,15.45083,     -2.43588, 25.48200,50.00000,20.00000,3.68453
553.05200,15.46083,     -2.43652, 25.47766,50.00000,20.00000,3.68298
553.54901,15.47083,     -2.43711, 25.46771,50.00000,20.00000,3.68141
554.04303,15.48083,     -2.43763, 25.46112,50.00000,20.00000,3.67985
554.53802,15.49083,     -2.43805, 25.44457,50.00000,20.00000,3.67829
555.03101,15.50083,     -2.43879, 25.43797,50.00000,20.00000,3.67674
555.52698,15.51083,     -2.43936, 25.42142,50.00000,20.00000,3.67518
556.02002,15.52083,     -2.43981, 25.41049,50.00000,20.00000,3.67363
556.51501,15.53083,     -2.44046, 25.38843,50.00000,20.00000,3.67208
557.01202,15.54083,     -2.44111, 25.37740,50.00000,20.00000,3.67052
557.50500,15.55083,     -2.44160, 25.35868,50.00000,20.00000,3.66897
557.99902,15.56083,     -2.44227, 25.34105,50.00000,20.00000,3.66742
558.49500,15.57083,     -2.44306, 25.32894,50.00000,20.00000,3.66586
558.98901,15.58083,     -2.44341, 25.31249,50.00000,20.00000,3.66432
559.48401,15.59083,     -2.44399, 25.30914,50.00000,20.00000,3.66277
559.97803,15.60083,     -2.44455, 25.29151,50.00000,20.00000,3.66122
560.47601,15.61083,     -2.44527, 25.28718,50.00000,20.00000,3.65966
560.96997,15.62083,     -2.44585, 25.26728,50.00000,20.00000,3.65812
561.46503,15.63083,     -2.44639, 25.25852,50.00000,20.00000,3.65657
561.96100,15.64083,     -2.44687, 25.24965,50.00000,20.00000,3.65502
562.45801,15.65083,     -2.44737, 25.23872,50.00000,20.00000,3.65347
562.95203,15.66083,     -2.44797, 25.22661,50.00000,20.00000,3.65193
563.44702,15.67083,     -2.44806, 25.20454,50.00000,20.00000,3.65039
563.94299,15.68083,     -2.44904, 25.19578,50.00000,20.00000,3.64884
564.44000,15.69083,     -2.44993, 25.18140,50.00000,20.00000,3.64730
564.93597,15.70083,     -2.45019, 25.16820,50.00000,20.00000,3.64575
565.43402,15.71083,     -2.45048, 25.16160,50.00000,20.00000,3.64420
565.92700,15.72083,     -2.45090, 25.14505,50.00000,20.00000,3.64267
566.42200,15.73083,     -2.45135, 25.13737,50.00000,20.00000,3.64113
566.91998,15.74083,     -2.45182, 25.12083,50.00000,20.00000,3.63959
567.41498,15.75083,     -2.45221, 25.11423,50.00000,20.00000,3.63805
567.91400,15.76083,     -2.45233, 25.10103,50.00000,20.00000,3.63650
568.40997,15.77083,     -2.45274, 25.09551,50.00000,20.00000,3.63497
568.90601,15.78083,     -2.45326, 25.08015,50.00000,20.00000,3.63343
569.40100,15.79083,     -2.45374, 25.07020,50.00000,20.00000,3.63190
569.89899,15.80083,     -2.45408, 25.06360,50.00000,20.00000,3.63036
570.39398,15.81083,     -2.45422, 25.05818,50.00000,20.00000,3.62883
570.89099,15.82083,     -2.45456, 25.04390,50.00000,20.00000,3.62729
571.38898,15.83083,     -2.45491, 25.03070,50.00000,20.00000,3.62575
571.88599,15.84083,     -2.45581, 25.02401,50.00000,20.00000,3.62422
572.38098,15.85083,     -2.45693, 25.00756,50.00000,20.00000,3.62269
572.87701,15.86083,     -2.45734, 25.00096,50.00000,20.00000,3.62116
573.37701,15.87083,     -2.45760, 24.99101,50.00000,20.00000,3.61962
573.87201,15.88083,     -2.45778, 24.98658,50.00000,20.00000,3.61810
574.37000,15.89083,     -2.45799, 24.96678,50.00000,20.00000,3.61656
574.86603,15.90083,     -2.45820, 24.95802,50.00000,20.00000,3.61504
575.36603,15.91083,     -2.45827, 24.94364,50.00000,20.00000,3.61350
575.86200,15.92083,     -2.45843, 24.93379,50.00000,20.00000,3.61198
576.35999,15.93083,     -2.45862, 24.91941,50.00000,20.00000,3.61045
576.85303,15.94083,     -2.45865, 24.91173,50.00000,20.00000,3.60893
577.35498,15.95083,     -2.45874, 24.89961,50.00000,20.00000,3.60739
577.84998,15.96083,     -2.45884, 24.88966,50.00000,20.00000,3.60588
578.34802,15.97083,     -2.45911, 24.87647,50.00000,20.00000,3.60435
578.84698,15.98083,     -2.45927, 24.86878,50.00000,20.00000,3.60282
579.34302,15.99083,     -2.45931, 24.85559,50.00000,20.00000,3.60130
579.84198,16.00083,     -2.45937, 24.84239,50.00000,20.00000,3.59978
580.33899,16.01083,     -2.45926, 24.83244,50.00000,20.00000,3.59826
580.83600,16.02083,     -2.45917, 24.81264,50.00000,20.00000,3.59674
581.33301,16.03083,     -2.45919, 24.81481,50.00000,20.00000,3.59522
581.83099,16.04083,     -2.45916, 24.80604,50.00000,20.00000,3.59370
582.32800,16.05083,     -2.45915, 24.79285,50.00000,20.00000,3.59219
582.82800,16.06083,     -2.45892, 24.78290,50.00000,20.00000,3.59066
583.32397,16.07083,     -2.45882, 24.76635,50.00000,20.00000,3.58915
583.82397,16.08083,     -2.45878, 24.76310,50.00000,20.00000,3.58763
584.32300,16.09083,     -2.45867, 24.74547,50.00000,20.00000,3.58611
584.81799,16.10083,     -2.45842, 24.74104,50.00000,20.00000,3.58461
585.31799,16.11083,     -2.45806, 24.72124,50.00000,20.00000,3.58309
585.81598,16.12083,     -2.45796, 24.71681,50.00000,20.00000,3.58157
586.31299,16.13083,     -2.45789, 24.69701,50.00000,20.00000,3.58007
586.81097,16.14083,     -2.45762, 24.69366,50.00000,20.00000,3.57855
587.30902,16.15083,     -2.45731, 24.67613,50.00000,20.00000,3.57704
587.80701,16.16083,     -2.45684, 24.67278,50.00000,20.00000,3.57553
588.30499,16.17083,     -2.45670, 24.65850,50.00000,20.00000,3.57403
588.80200,16.18083,     -2.45670, 24.65515,50.00000,20.00000,3.57252
589.30103,16.19083,     -2.45641, 24.63979,50.00000,20.00000,3.57101
589.80200,16.20083,     -2.45603, 24.63536,50.00000,20.00000,3.56950
590.29700,16.21083,     -2.45556, 24.61556,50.00000,20.00000,3.56800
590.79303,16.22083,     -2.45507, 24.61113,50.00000,20.00000,3.56650
591.29102,16.23083,     -2.45459, 24.59133,50.00000,20.00000,3.56500
591.79199,16.24083,     -2.45416, 24.58690,50.00000,20.00000,3.56349
592.29102,16.25083,     -2.45365, 24.56710,50.00000,20.00000,3.56198
592.78802,16.26083,     -2.45319, 24.56267,50.00000,20.00000,3.56049
593.28699,16.27083,     -2.45243, 24.54504,50.00000,20.00000,3.55898
593.78400,16.28083,     -2.45183, 24.54179,50.00000,20.00000,3.55749
594.28198,16.29083,     -2.45126, 24.52524,50.00000,20.00000,3.55599
594.78003,16.30083,     -2.45071, 24.52189,50.00000,20.00000,3.55449
595.27600,16.31083,     -2.45019, 24.50653,50.00000,20.00000,3.55300
595.77502,16.32083,     -2.44951, 24.50210,50.00000,20.00000,3.55150
596.27600,16.33083,     -2.44877, 24.48338,50.00000,20.00000,3.55000
596.77301,16.34083,     -2.44834, 24.48013,50.00000,20.00000,3.54851
597.27100,16.35083,     -2.44772, 24.46575,50.00000,20.00000,3.54702
597.76898,16.36083,     -2.44709, 24.46250,50.00000,20.00000,3.54552
598.26801,16.37083,     -2.44645, 24.45925,50.00000,20.00000,3.54403
598.76599,16.38083,     -2.44568, 24.45915,50.00000,20.00000,3.54254
599.26599,16.39083,     -2.44499, 24.44152,50.00000,20.00000,3.54104
599.76398,16.40083,     -2.44434, 24.43709,50.00000,20.00000,3.53955
600.26202,16.41083,     -2.44369, 24.41730,50.00000,20.00000,3.53807
600.75897,16.42083,     -2.44283, 24.40961,50.00000,20.00000,3.53658
601.25800,16.43083,     -2.44199, 24.39750,50.00000,20.00000,3.53509
601.75702,16.44083,     -2.44093, 24.38755,50.00000,20.00000,3.53360
602.25598,16.45083,     -2.43981, 24.37435,50.00000,20.00000,3.53212
602.75403,16.46083,     -2.43892, 24.36667,50.00000,20.00000,3.53063
603.25201,16.47083,     -2.43803, 24.35456,50.00000,20.00000,3.52915
603.74799,16.48083,     -2.43724, 24.34461,50.00000,20.00000,3.52767
604.24799,16.49083,     -2.43641, 24.33141,50.00000,20.00000,3.52619
604.74597,16.50083,     -2.43552, 24.32156,50.00000,20.00000,3.52471
605.24500,16.51083,     -2.43437, 24.30718,50.00000,20.00000,3.52322
605.74103,16.52083,     -2.43368, 24.29950,50.00000,20.00000,3.52175
606.23700,16.53083,     -2.43273, 24.28738,50.00000,20.00000,3.52028
606.73798,16.54083,     -2.43171, 24.28965,50.00000,20.00000,3.51879
607.23700,16.55083,     -2.43036, 24.28187,50.00000,20.00000,3.51731
607.73297,16.56083,     -2.42917, 24.27419,50.00000,20.00000,3.51584
608.23297,16.57083,     -2.42806, 24.26424,50.00000,20.00000,3.51436
608.73102,16.58083,     -2.42717, 24.25439,50.00000,20.00000,3.51289
609.22699,16.59083,     -2.42633, 24.24109,50.00000,20.00000,3.51142
609.72601,16.60083,     -2.42503, 24.23341,50.00000,20.00000,3.50995
610.22498,16.61083,     -2.42378, 24.22238,50.00000,20.00000,3.50847
610.71997,16.62083,     -2.42267, 24.21913,50.00000,20.00000,3.50701
611.21802,16.63083,     -2.42152, 24.20258,50.00000,20.00000,3.50554
611.71802,16.64083,     -2.42050, 24.19933,50.00000,20.00000,3.50407
612.21503,16.65083,     -2.41916, 24.18279,50.00000,20.00000,3.50260
612.71301,16.66083,     -2.41787, 24.17510,50.00000,20.00000,3.50114
613.21100,16.67083,     -2.41659, 24.16072,50.00000,20.00000,3.49967
613.70898,16.68083,     -2.41537, 24.14536,50.00000,20.00000,3.49820
614.20697,16.69083,     -2.41397, 24.13433,50.00000,20.00000,3.49674
614.70398,16.70083,     -2.41294, 24.11778,50.00000,20.00000,3.49528
615.20203,16.71083,     -2.41158, 24.11453,50.00000,20.00000,3.49382
615.70001,16.72083,     -2.41020, 24.09907,50.00000,20.00000,3.49235
616.19800,16.73083,     -2.40885, 24.09582,50.00000,20.00000,3.49089
616.69299,16.74083,     -2.40759, 24.08144,50.00000,20.00000,3.48944
617.19000,16.75083,     -2.40633, 24.07710,50.00000,20.00000,3.48798
617.69098,16.76083,     -2.40506, 24.06499,50.00000,20.00000,3.48652
618.18799,16.77083,     -2.40358, 24.06834,50.00000,20.00000,3.48506
618.68298,16.78083,     -2.40223, 24.05839,50.00000,20.00000,3.48361
619.17902,16.79083,     -2.40097, 24.05287,50.00000,20.00000,3.48216
619.67902,16.80083,     -2.39990, 24.04509,50.00000,20.00000,3.48070
620.17297,16.81083,     -2.39850, 24.03416,50.00000,20.00000,3.47926
620.67102,16.82083,     -2.39687, 24.02638,50.00000,20.00000,3.47780
621.16998,16.83083,     -2.39545, 24.01427,50.00000,20.00000,3.47635
621.66803,16.84083,     -2.39412, 24.00658,50.00000,20.00000,3.47489
622.16101,16.85083,     -2.39247, 23.99447,50.00000,20.00000,3.47346
622.65997,16.86083,     -2.39096, 23.98679,50.00000,20.00000,3.47200
623.15601,16.87083,     -2.38955, 23.97910,50.00000,20.00000,3.47056
623.65302,16.88083,     -2.38808, 23.97467,50.00000,20.00000,3.46911
624.14801,16.89083,     -2.38660, 23.96472,50.00000,20.00000,3.46767
624.64301,16.90083,     -2.38527, 23.95704,50.00000,20.00000,3.46623
625.14301,16.91083,     -2.38397, 23.94601,50.00000,20.00000,3.46478
625.63702,16.92083,     -2.38266, 23.94493,50.00000,20.00000,3.46335
626.13300,16.93083,     -2.38120, 23.93390,50.00000,20.00000,3.46191
626.63000,16.94083,     -2.37958, 23.92621,50.00000,20.00000,3.46046
627.12500,16.95083,     -2.37790, 23.91627,50.00000,20.00000,3.45903
627.62097,16.96083,     -2.37656, 23.90858,50.00000,20.00000,3.45759
628.11798,16.97083,     -2.37529, 23.90090,50.00000,20.00000,3.45615
628.61298,16.98083,     -2.37386, 23.90317,50.00000,20.00000,3.45472
629.10699,16.99083,     -2.37221, 23.89105,50.00000,20.00000,3.45329
629.60498,17.00083,     -2.37056, 23.88110,50.00000,20.00000,3.45185
630.09998,17.01083,     -2.36906, 23.86682,50.00000,20.00000,3.45042
630.59601,17.02083,     -2.36756, 23.86022,50.00000,20.00000,3.44899
631.09100,17.03083,     -2.36613, 23.85028,50.00000,20.00000,3.44756
631.58698,17.04083,     -2.36462, 23.84703,50.00000,20.00000,3.44613
632.07800,17.05083,     -2.36311, 23.83265,50.00000,20.00000,3.44471
632.57300,17.06083,     -2.36169, 23.83265,50.00000,20.00000,3.44329
633.06897,17.07083,     -2.36009, 23.82171,50.00000,20.00000,3.44186
633.56500,17.08083,     -2.35838, 23.81620,50.00000,20.00000,3.44043
634.05499,17.09083,     -2.35697, 23.80182,50.00000,20.00000,3.43902
634.54999,17.10083,     -2.35563, 23.79522,50.00000,20.00000,3.43760
635.04401,17.11083,     -2.35417, 23.78202,50.00000,20.00000,3.43618
635.53601,17.12083,     -2.35267, 23.77542,50.00000,20.00000,3.43476
636.02698,17.13083,     -2.35108, 23.76439,50.00000,20.00000,3.43335
636.52002,17.14083,     -2.34955, 23.75888,50.00000,20.00000,3.43194
637.01300,17.15083,     -2.34817, 23.74686,50.00000,20.00000,3.43053
637.50598,17.16083,     -2.34671, 23.74134,50.00000,20.00000,3.42911
638.00000,17.17083,     -2.34520, 23.72805,50.00000,20.00000,3.42770
638.48901,17.18083,     -2.34359, 23.72923,50.00000,20.00000,3.42630
638.97998,17.19083,     -2.34214, 23.71593,50.00000,20.00000,3.42489
639.46997,17.20083,     -2.34064, 23.70933,50.00000,20.00000,3.42349
639.96301,17.21083,     -2.33912, 23.69722,50.00000,20.00000,3.42208
640.45203,17.22083,     -2.33760, 23.69062,50.00000,20.00000,3.42068
640.94202,17.23083,     -2.33583, 23.67742,50.00000,20.00000,3.41929
641.43103,17.24083,     -2.33430, 23.67191,50.00000,20.00000,3.41789
641.91901,17.25083,     -2.33283, 23.66413,50.00000,20.00000,3.41650
642.41101,17.26083,     -2.33130, 23.65319,50.00000,20.00000,3.41510
642.89697,17.27083,     -2.32949, 23.65319,50.00000,20.00000,3.41371
643.38397,17.28083,     -2.32771, 23.64108,50.00000,20.00000,3.41232
643.86798,17.29083,     -2.32588, 23.63665,50.00000,20.00000,3.41095
644.35602,17.30083,     -2.32422, 23.63330,50.00000,20.00000,3.40956
644.84198,17.31083,     -2.32243, 23.62345,50.00000,20.00000,3.40818
645.32800,17.32083,     -2.32057, 23.62345,50.00000,20.00000,3.40679
645.81299,17.33083,     -2.31820, 23.61133,50.00000,20.00000,3.40542
646.29700,17.34083,     -2.31600, 23.60582,50.00000,20.00000,3.40404
646.78101,17.35083,     -2.31398, 23.59262,50.00000,20.00000,3.40267
647.26501,17.36083,     -2.31188, 23.59036,50.00000,20.00000,3.40130
647.74799,17.37083,     -2.31001, 23.58385,50.00000,20.00000,3.39993
648.22900,17.38083,     -2.30751, 23.57607,50.00000,20.00000,3.39856
648.71100,17.39083,     -2.30503, 23.56396,50.00000,20.00000,3.39720
649.19098,17.40083,     -2.30237, 23.55854,50.00000,20.00000,3.39584
649.67200,17.41083,     -2.29944, 23.55184,50.00000,20.00000,3.39448
650.15198,17.42083,     -2.29701, 23.54308,50.00000,20.00000,3.39312
650.62799,17.43083,     -2.29413, 23.53983,50.00000,20.00000,3.39178
651.10901,17.44083,     -2.29118, 23.52328,50.00000,20.00000,3.39042
651.58698,17.45083,     -2.28814, 23.51993,50.00000,20.00000,3.38907
652.06799,17.46083,     -2.28531, 23.50349,50.00000,20.00000,3.38771
652.54303,17.47083,     -2.28197, 23.50014,50.00000,20.00000,3.38637
653.02002,17.48083,     -2.27906, 23.48477,50.00000,20.00000,3.38503
653.49597,17.49083,     -2.27566, 23.48477,50.00000,20.00000,3.38369
653.97198,17.50083,     -2.27229, 23.47266,50.00000,20.00000,3.38235
654.44702,17.51083,     -2.26897, 23.47709,50.00000,20.00000,3.38101
654.92200,17.52083,     -2.26589, 23.47699,50.00000,20.00000,3.37967
655.39697,17.53083,     -2.26251, 23.46271,50.00000,20.00000,3.37834
655.86902,17.54083,     -2.25902, 23.46271,50.00000,20.00000,3.37701
656.34302,17.55083,     -2.25537, 23.44951,50.00000,20.00000,3.37568
656.81403,17.56083,     -2.25171, 23.44400,50.00000,20.00000,3.37436
657.28400,17.57083,     -2.24784, 23.43296,50.00000,20.00000,3.37304
657.75500,17.58083,     -2.24440, 23.42745,50.00000,20.00000,3.37172
658.22601,17.59083,     -2.24066, 23.41977,50.00000,20.00000,3.37040
658.69501,17.60083,     -2.23661, 23.40765,50.00000,20.00000,3.36908
659.16400,17.61083,     -2.23284, 23.40105,50.00000,20.00000,3.36777
659.63397,17.62083,     -2.22903, 23.39111,50.00000,20.00000,3.36645
660.10199,17.63083,     -2.22505, 23.38342,50.00000,20.00000,3.36514
660.56897,17.64083,     -2.22109, 23.37574,50.00000,20.00000,3.36384
661.03699,17.65083,     -2.21690, 23.38234,50.00000,20.00000,3.36253
661.50201,17.66083,     -2.21270, 23.36688,50.00000,20.00000,3.36123
661.96698,17.67083,     -2.20864, 23.36688,50.00000,20.00000,3.35993
662.43500,17.68083,     -2.20442, 23.35476,50.00000,20.00000,3.35863
662.90100,17.69083,     -2.20037, 23.34925,50.00000,20.00000,3.35733
663.36401,17.70083,     -2.19661, 23.34156,50.00000,20.00000,3.35604
663.82501,17.71083,     -2.19245, 23.33053,50.00000,20.00000,3.35475
664.28998,17.72083,     -2.18835, 23.32728,50.00000,20.00000,3.35346
664.75299,17.73083,     -2.18423, 23.31182,50.00000,20.00000,3.35217
665.21399,17.74083,     -2.18171, 23.31182,50.00000,20.00000,3.35088
665.67297,17.75083,     -2.17911, 23.29970,50.00000,20.00000,3.34961
666.13397,17.76083,     -2.17496, 23.29527,50.00000,20.00000,3.34833
666.59601,17.77083,     -2.17108, 23.28867,50.00000,20.00000,3.34704
667.05499,17.78083,     -2.16678, 23.27991,50.00000,20.00000,3.34577
667.51599,17.79083,     -2.16224, 23.27656,50.00000,20.00000,3.34449
667.97302,17.80083,     -2.15780, 23.26119,50.00000,20.00000,3.34322
668.42999,17.81083,     -2.15370, 23.26119,50.00000,20.00000,3.34195
668.88898,17.82083,     -2.14921, 23.25460,50.00000,20.00000,3.34068
669.34802,17.83083,     -2.14476, 23.25460,50.00000,20.00000,3.33941
669.80103,17.84083,     -2.14053, 23.24681,50.00000,20.00000,3.33815
670.25598,17.85083,     -2.13611, 23.23588,50.00000,20.00000,3.33689
670.71198,17.86083,     -2.13133, 23.23253,50.00000,20.00000,3.33563
671.16803,17.87083,     -2.12727, 23.22042,50.00000,20.00000,3.33437
671.62000,17.88083,     -2.12288, 23.22042,50.00000,20.00000,3.33312
672.07501,17.89083,     -2.11825, 23.23037,50.00000,20.00000,3.33186
672.52802,17.90083,     -2.11372, 23.22377,50.00000,20.00000,3.33061
672.97900,17.91083,     -2.10930, 23.21943,50.00000,20.00000,3.32936
673.43402,17.92083,     -2.10492, 23.21943,50.00000,20.00000,3.32811
673.88599,17.93083,     -2.10052, 23.20840,50.00000,20.00000,3.32686
674.33398,17.94083,     -2.09612, 23.20397,50.00000,20.00000,3.32563
674.78601,17.95083,     -2.09151, 23.19629,50.00000,20.00000,3.32438
675.23401,17.96083,     -2.08704, 23.19619,50.00000,20.00000,3.32315
675.68298,17.97083,     -2.08254, 23.19629,50.00000,20.00000,3.32191
676.13397,17.98083,     -2.07814, 23.18082,50.00000,20.00000,3.32067
676.58398,17.99083,     -2.07373, 23.18082,50.00000,20.00000,3.31943
677.03101,18.00083,     -2.06927, 23.16989,50.00000,20.00000,3.31820
677.47400,18.01083,     -2.06470, 23.16546,50.00000,20.00000,3.31699
677.92297,18.02083,     -2.06033, 23.16211,50.00000,20.00000,3.31575
678.37097,18.03083,     -2.05606, 23.14891,50.00000,20.00000,3.31452
678.81299,18.04083,     -2.05159, 23.14891,50.00000,20.00000,3.31331
679.25897,18.05083,     -2.04720, 23.14123,50.00000,20.00000,3.31209
679.70502,18.06083,     -2.04251, 23.13128,50.00000,20.00000,3.31086
680.14899,18.07083,     -2.03813, 23.14113,50.00000,20.00000,3.30965
680.59302,18.08083,     -2.03391, 23.13237,50.00000,20.00000,3.30843
681.03601,18.09083,     -2.02965, 23.12803,50.00000,20.00000,3.30722
681.47900,18.10083,     -2.02553, 23.12803,50.00000,20.00000,3.30600
681.92499,18.11083,     -2.02087, 23.11592,50.00000,20.00000,3.30478
682.36700,18.12083,     -2.01661, 23.11149,50.00000,20.00000,3.30357
682.80701,18.13083,     -2.01222, 23.11139,50.00000,20.00000,3.30237
683.24799,18.14083,     -2.00783, 23.10814,50.00000,20.00000,3.30117
683.68903,18.15083,     -2.00360, 23.10814,50.00000,20.00000,3.29996
684.12903,18.16083,     -1.99914, 23.10154,50.00000,20.00000,3.29876
684.56897,18.17083,     -1.99481, 23.09277,50.00000,20.00000,3.29756
685.00897,18.18083,     -1.99045, 23.09277,50.00000,20.00000,3.29636
685.44800,18.19083,     -1.98588, 23.08942,50.00000,20.00000,3.29516
685.88397,18.20083,     -1.98156, 23.07731,50.00000,20.00000,3.29397
686.32098,18.21083,     -1.97734, 23.07731,50.00000,20.00000,3.29278
686.75897,18.22083,     -1.97320, 23.07071,50.00000,20.00000,3.29159
687.19800,18.23083,     -1.96896, 23.06076,50.00000,20.00000,3.29040
687.63397,18.24083,     -1.96451, 23.05751,50.00000,20.00000,3.28921
688.06897,18.25083,     -1.96035, 23.04323,50.00000,20.00000,3.28803
688.50598,18.26083,     -1.95607, 23.04323,50.00000,20.00000,3.28684
688.94098,18.27083,     -1.95199, 23.03545,50.00000,20.00000,3.28566
689.37598,18.28083,     -1.94762, 23.02560,50.00000,20.00000,3.28448
689.81000,18.29083,     -1.94337, 23.02560,50.00000,20.00000,3.28330
690.24402,18.30083,     -1.93919, 23.01792,50.00000,20.00000,3.28212
690.67700,18.31083,     -1.93492, 23.00797,50.00000,20.00000,3.28094
691.10901,18.32083,     -1.93061, 23.00797,50.00000,20.00000,3.27977
691.54102,18.33083,     -1.92654, 22.99477,50.00000,20.00000,3.27860
691.97400,18.34083,     -1.92234, 22.98926,50.00000,20.00000,3.27743
692.40601,18.35083,     -1.91789, 22.99152,50.00000,20.00000,3.27626
692.83698,18.36083,     -1.91373, 22.98483,50.00000,20.00000,3.27509
693.26599,18.37083,     -1.90968, 22.98483,50.00000,20.00000,3.27393
693.69897,18.38083,     -1.90605, 22.98483,50.00000,20.00000,3.27276

