#EXPORTTYPE:                 ,DATA ALL                                                      
#FILE:                       ,PYRO_MDF_30_700_N2_50_Kmin_recal_02.ngb-ds3                   
#FORMAT:                     ,NETZSCH5                                                      
#FTYPE:                      ,ANSI                                                          
#IDENTITY:                   ,pyro_30_700_N2_50Kmin_MDF_02                                  
#DECIMAL:                    ,POINT                                                         
#SEPARATOR:                  ,COMMA                                                         
#MTYPE:                      ,DSC                                                           
#INSTRUMENT:                 ,NETZSCH STA 449F3                                             
#PROJECT:                    ,pyroboard                                                     
#DATE/TIME:                  ,10.02.2021 12:11:44 (UTC+1)                                   
#CORR. FILE:                 ,Correction for method PYROBOARD_30_700_N2_50Kmin_Recal_cooling
#TEMPCAL:                    ,06-01-2021 10:01                                              
#SENSITIVITY:                ,06-01-2021 10:22                                              
#LABORATORY:                 ,TUPO                                                          
#OPERATOR:                   ,LH                                                            
#REMARK:                     ,                                                              
#SAMPLE:                     ,pyro_30_700_N2_50Kmin_MDF_02                                  
#SAMPLE MASS /mg:            ,9.4838                                                        
#MATERIAL:                   ,MDF                                                           
#REFERENCE:                  ,-----                                                         
#REFERENCE MASS /mg:         ,0                                                             
#TYPE OF CRUCIBLE:           ,Al2O3 85 µl, open                                             
#SAMPLE CRUCIBLE MASS /mg:   ,132.6605                                                      
#REFERENCE CRUCIBLE MASS /mg:,141.57                                                        
#DSC RANGE /µV:              ,5000                                                          
#TG RANGE /mg:               ,35000                                                         
#TAU-R:                      ,---                                                           
#CORR. CODE:                 ,020                                                           
#EXO:                        ,-1                                                            
#RANGE:                      ,30°C/50.0(K/min)/700°C                                        
#SEGMENT:                    ,S2/4                                                          
#SEG. 2:                     ,30°C/50.0(K/min)/700°C                                        

##Temp./°C,Time/min,DSC/(mW/mg),Mass/%,Gas Flow(purge2)/(ml/min),Gas Flow(protective)/(ml/min),Sensit./(uV/mW)
 30.02300, 4.99000, 5.978028e-03,99.97048,50.00000,20.00000,5.70580
 30.01800, 5.00000, 5.992106e-03,99.97048,50.00000,20.00000,5.70582
 30.02200, 5.01000, 5.935726e-03,99.97048,50.00000,20.00000,5.70581
 30.02100, 5.02000, 5.963920e-03,99.97048,50.00000,20.00000,5.70581
 30.02200, 5.03000, 5.963924e-03,99.97048,50.00000,20.00000,5.70581
 30.01900, 5.04000, 5.992111e-03,99.96689,50.00000,20.00000,5.70582
 30.02000, 5.05000, 5.978016e-03,99.97058,50.00000,20.00000,5.70581
 30.01800, 5.06000, 5.935710e-03,99.97058,50.00000,20.00000,5.70582
 30.02200, 5.07000, 5.935726e-03,99.97058,50.00000,20.00000,5.70581
 30.02200, 5.08000, 6.034420e-03,99.97058,50.00000,20.00000,5.70581
 30.01800, 5.09000, 6.062602e-03,99.97058,50.00000,20.00000,5.70582
 30.02200, 5.10000, 6.104916e-03,99.97058,50.00000,20.00000,5.70581
 30.02000, 5.11000, 6.133105e-03,99.97406,50.00000,20.00000,5.70581
 30.02600, 5.12000, 6.090833e-03,99.98471,50.00000,20.00000,5.70579
 30.02400, 5.13000, 6.119023e-03,99.97406,50.00000,20.00000,5.70580
 30.02700, 5.14000, 6.147234e-03,99.96932,50.00000,20.00000,5.70579
 30.02900, 5.15000, 6.119044e-03,99.96932,50.00000,20.00000,5.70578
 30.03200, 5.16000, 6.175453e-03,99.96457,50.00000,20.00000,5.70577
 30.03100, 5.17000, 6.203647e-03,99.96805,50.00000,20.00000,5.70577
 30.03700, 5.18000, 6.302367e-03,99.96225,50.00000,20.00000,5.70575
 30.04300, 5.19000, 6.344691e-03,99.96457,50.00000,20.00000,5.70572
 30.04800, 5.20000, 6.344712e-03,99.95392,50.00000,20.00000,5.70570
 30.05500, 5.21000, 6.528035e-03,99.96457,50.00000,20.00000,5.70568
 30.06300, 5.22000, 6.542170e-03,99.94812,50.00000,20.00000,5.70565
 30.07000, 5.23000, 6.387105e-03,99.95403,50.00000,20.00000,5.70562
 30.07600, 5.24000, 6.415331e-03,99.95044,50.00000,20.00000,5.70560
 30.08800, 5.25000, 6.514081e-03,99.94454,50.00000,20.00000,5.70555
 30.10100, 5.26000, 6.344940e-03,99.95160,50.00000,20.00000,5.70550
 30.11000, 5.27000, 6.485978e-03,99.96457,50.00000,20.00000,5.70547
 30.12600, 5.28000, 6.570649e-03,99.96225,50.00000,20.00000,5.70540
 30.14100, 5.29000, 6.598917e-03,99.95519,50.00000,20.00000,5.70535
 30.15900, 5.30000, 6.697700e-03,99.96584,50.00000,20.00000,5.70528
 30.17300, 5.31000, 6.740065e-03,99.97522,50.00000,20.00000,5.70522
 30.19300, 5.32000, 6.683753e-03,99.96457,50.00000,20.00000,5.70514
 30.21400, 5.33000, 6.613344e-03,99.95044,50.00000,20.00000,5.70506
 30.23600, 5.34000, 6.810859e-03,99.95751,50.00000,20.00000,5.70498
 30.26100, 5.35000, 6.923785e-03,99.96932,50.00000,20.00000,5.70488
 30.29000, 5.36000, 7.036734e-03,99.96225,50.00000,20.00000,5.70477
 30.31500, 5.37000, 7.121465e-03,99.95044,50.00000,20.00000,5.70467
 30.34600, 5.38000, 7.192125e-03,99.95635,50.00000,20.00000,5.70455
 30.37800, 5.39000, 7.262794e-03,99.96689,50.00000,20.00000,5.70443
 30.41300, 5.40000, 7.615538e-03,99.95751,50.00000,20.00000,5.70429
 30.45300, 5.41000, 7.911912e-03,99.94686,50.00000,20.00000,5.70414
 30.49000, 5.42000, 7.996732e-03,99.95751,50.00000,20.00000,5.70400
 30.53400, 5.43000, 8.279050e-03,99.97048,50.00000,20.00000,5.70383
 30.57700, 5.44000, 8.519067e-03,99.96225,50.00000,20.00000,5.70366
 30.62200, 5.45000, 9.027101e-03,99.95044,50.00000,20.00000,5.70349
 30.67500, 5.46000, 9.323638e-03,99.96109,50.00000,20.00000,5.70328
 30.72600, 5.47000, 9.620182e-03,99.97638,50.00000,20.00000,5.70308
 30.77900, 5.48000, 1.019889e-02,99.96816,50.00000,20.00000,5.70288
 30.83800, 5.49000, 1.056608e-02,99.95508,50.00000,20.00000,5.70265
 30.89800, 5.50000, 1.096151e-02,99.96573,50.00000,20.00000,5.70242
 30.96200, 5.51000, 1.151221e-02,99.97881,50.00000,20.00000,5.70217
 31.02900, 5.52000, 1.204886e-02,99.96700,50.00000,20.00000,5.70191
 31.09800, 5.53000, 1.251504e-02,99.95160,50.00000,20.00000,5.70165
 31.16900, 5.54000, 1.309415e-02,99.96457,50.00000,20.00000,5.70137
 31.24700, 5.55000, 1.375806e-02,99.97997,50.00000,20.00000,5.70107
 31.32600, 5.56000, 1.443615e-02,99.96689,50.00000,20.00000,5.70076
 31.40900, 5.57000, 1.502968e-02,99.94928,50.00000,20.00000,5.70044
 31.49600, 5.58000, 1.558098e-02,99.96109,50.00000,20.00000,5.70011
 31.58400, 5.59000, 1.640053e-02,99.97406,50.00000,20.00000,5.69977
 31.68200, 5.60000, 1.713560e-02,99.95751,50.00000,20.00000,5.69939
 31.77800, 5.61000, 1.794133e-02,99.93863,50.00000,20.00000,5.69901
 31.88200, 5.62000, 1.859197e-02,99.95044,50.00000,20.00000,5.69861
 31.99100, 5.63000, 1.951101e-02,99.96584,50.00000,20.00000,5.69819
 32.09700, 5.64000, 2.023249e-02,99.95160,50.00000,20.00000,5.69778
 32.21200, 5.65000, 2.101067e-02,99.93273,50.00000,20.00000,5.69733
 32.33200, 5.66000, 2.180317e-02,99.94454,50.00000,20.00000,5.69687
 32.45500, 5.67000, 2.256761e-02,99.95983,50.00000,20.00000,5.69639
 32.58000, 5.68000, 2.327571e-02,99.94570,50.00000,20.00000,5.69591
 32.70900, 5.69000, 2.430887e-02,99.92925,50.00000,20.00000,5.69541
 32.85000, 5.70000, 2.511639e-02,99.94338,50.00000,20.00000,5.69486
 32.98800, 5.71000, 2.581100e-02,99.96457,50.00000,20.00000,5.69433
 33.13500, 5.72000, 2.673197e-02,99.95635,50.00000,20.00000,5.69376
 33.28100, 5.73000, 2.758244e-02,99.94454,50.00000,20.00000,5.69319
 33.43700, 5.74000, 2.848982e-02,99.96225,50.00000,20.00000,5.69259
 33.59600, 5.75000, 2.936917e-02,99.98113,50.00000,20.00000,5.69197
 33.76300, 5.76000, 3.036196e-02,99.96573,50.00000,20.00000,5.69132
 33.93200, 5.77000, 3.132675e-02,99.94454,50.00000,20.00000,5.69067
 34.10500, 5.78000, 3.248980e-02,99.95635,50.00000,20.00000,5.68999
 34.28800, 5.79000, 3.341295e-02,99.97280,50.00000,20.00000,5.68928
 34.47100, 5.80000, 3.463332e-02,99.95635,50.00000,20.00000,5.68857
 34.66000, 5.81000, 3.575514e-02,99.93863,50.00000,20.00000,5.68784
 34.85400, 5.82000, 3.710370e-02,99.95751,50.00000,20.00000,5.68709
 35.05800, 5.83000, 3.836799e-02,99.97754,50.00000,20.00000,5.68629
 35.26300, 5.84000, 3.977416e-02,99.96341,50.00000,20.00000,5.68550
 35.47500, 5.85000, 4.095449e-02,99.94570,50.00000,20.00000,5.68467
 35.69300, 5.86000, 4.229106e-02,99.95877,50.00000,20.00000,5.68383
 35.91400, 5.87000, 4.388290e-02,99.97522,50.00000,20.00000,5.68297
 36.14300, 5.88000, 4.550379e-02,99.95867,50.00000,20.00000,5.68208
 36.37400, 5.89000, 4.689869e-02,99.94222,50.00000,20.00000,5.68118
 36.61200, 5.90000, 4.856335e-02,99.95993,50.00000,20.00000,5.68025
 36.85700, 5.91000, 5.007297e-02,99.98113,50.00000,20.00000,5.67930
 37.10900, 5.92000, 5.168255e-02,99.96816,50.00000,20.00000,5.67832
 37.36100, 5.93000, 5.349105e-02,99.95519,50.00000,20.00000,5.67734
 37.62300, 5.94000, 5.518718e-02,99.97164,50.00000,20.00000,5.67632
 37.89300, 5.95000, 5.705435e-02,99.98935,50.00000,20.00000,5.67526
 38.16300, 5.96000, 5.892218e-02,99.97638,50.00000,20.00000,5.67421
 38.44100, 5.97000, 6.070598e-02,99.95877,50.00000,20.00000,5.67313
 38.72500, 5.98000, 6.263255e-02,99.97406,50.00000,20.00000,5.67202
 39.01800, 5.99000, 6.382259e-02,99.99051,50.00000,20.00000,5.67088
 39.31400, 6.00000, 6.575108e-02,99.97406,50.00000,20.00000,5.66972
 39.61500, 6.01000, 6.751030e-02,99.95751,50.00000,20.00000,5.66855
 39.92400, 6.02000, 6.965389e-02,99.97522,50.00000,20.00000,5.66734
 40.24100, 6.03000, 7.169945e-02,99.99167,50.00000,20.00000,5.66610
 40.55700, 6.04000, 7.367481e-02,99.97512,50.00000,20.00000,5.66487
 40.88300, 6.05000, 7.570838e-02,99.95635,50.00000,20.00000,5.66359
 41.21700, 6.06000, 7.801325e-02,99.97164,50.00000,20.00000,5.66229
 41.55500, 6.07000, 8.012045e-02,99.98819,50.00000,20.00000,5.66096
 41.90100, 6.08000, 8.191635e-02,99.97512,50.00000,20.00000,5.65961
 42.24800, 6.09000, 8.413974e-02,99.95751,50.00000,20.00000,5.65825
 42.60600, 6.10000, 8.645023e-02,99.97406,50.00000,20.00000,5.65685
 42.96700, 6.11000, 8.866244e-02,99.99051,50.00000,20.00000,5.65544
 43.33800, 6.12000, 9.084795e-02,99.97396,50.00000,20.00000,5.65398
 43.71000, 6.13000, 9.312004e-02,99.95392,50.00000,20.00000,5.65253
 44.09200, 6.14000, 9.529432e-02,99.96584,50.00000,20.00000,5.65103
 44.47700, 6.15000, 9.748425e-02,99.97870,50.00000,20.00000,5.64952
 44.86900, 6.16000, 9.963304e-02,99.96341,50.00000,20.00000,5.64798
 45.27000, 6.17000,      0.10185,99.94686,50.00000,20.00000,5.64640
 45.67400, 6.18000,      0.10405,99.96215,50.00000,20.00000,5.64482
 46.08500, 6.19000,      0.10650,99.98229,50.00000,20.00000,5.64320
 46.50200, 6.20000,      0.10877,99.97290,50.00000,20.00000,5.64156
 46.92500, 6.21000,      0.11106,99.95983,50.00000,20.00000,5.63990
 47.35400, 6.22000,      0.11315,99.97280,50.00000,20.00000,5.63821
 47.78900, 6.23000,      0.11541,99.98819,50.00000,20.00000,5.63650
 48.22900, 6.24000,      0.11776,99.97638,50.00000,20.00000,5.63477
 48.67900, 6.25000,      0.12001,99.95993,50.00000,20.00000,5.63300
 49.12900, 6.26000,      0.12236,99.97406,50.00000,20.00000,5.63122
 49.58600, 6.27000,      0.12451,99.99051,50.00000,20.00000,5.62942
 50.05700, 6.28000,      0.12667,99.97986,50.00000,20.00000,5.62756
 50.52600, 6.29000,      0.12894,99.96573,50.00000,20.00000,5.62571
 51.00300, 6.30000,      0.13129,99.97754,50.00000,20.00000,5.62383
 51.48500, 6.31000,      0.13349,99.98819,50.00000,20.00000,5.62193
 51.97100, 6.32000,      0.13571,99.97512,50.00000,20.00000,5.62001
 52.46600, 6.33000,      0.13785,99.95993,50.00000,20.00000,5.61805
 52.96400, 6.34000,      0.13996,99.96805,50.00000,20.00000,5.61608
 53.47500, 6.35000,      0.14202,99.97870,50.00000,20.00000,5.61406
 53.98400, 6.36000,      0.14406,99.96457,50.00000,20.00000,5.61204
 54.50400, 6.37000,      0.14622,99.94696,50.00000,20.00000,5.60998
 55.02300, 6.38000,      0.14824,99.95751,50.00000,20.00000,5.60793
 55.55200, 6.39000,      0.15018,99.97164,50.00000,20.00000,5.60583
 56.09200, 6.40000,      0.15212,99.96225,50.00000,20.00000,5.60369
 56.62800, 6.41000,      0.15404,99.95276,50.00000,20.00000,5.60156
 57.17500, 6.42000,      0.15575,99.96700,50.00000,20.00000,5.59939
 57.73000, 6.43000,      0.15725,99.98577,50.00000,20.00000,5.59719
 58.28500, 6.44000,      0.15884,99.97754,50.00000,20.00000,5.59498
 58.84800, 6.45000,      0.16038,99.96457,50.00000,20.00000,5.59274
 59.41800, 6.46000,      0.16176,99.97164,50.00000,20.00000,5.59047
 59.98900, 6.47000,      0.16296,99.97997,50.00000,20.00000,5.58820
 60.56800, 6.48000,      0.16424,99.96573,50.00000,20.00000,5.58590
 61.15200, 6.49000,      0.16556,99.94928,50.00000,20.00000,5.58357
 61.74600, 6.50000,      0.16657,99.95635,50.00000,20.00000,5.58120
 62.33900, 6.51000,      0.16749,99.96689,50.00000,20.00000,5.57884
 62.93900, 6.52000,      0.16834,99.95751,50.00000,20.00000,5.57644
 63.54600, 6.53000,      0.16902,99.94580,50.00000,20.00000,5.57402
 64.15300, 6.54000,      0.16963,99.95508,50.00000,20.00000,5.57160
 64.77500, 6.55000,      0.17015,99.96805,50.00000,20.00000,5.56911
 65.39200, 6.56000,      0.17069,99.95867,50.00000,20.00000,5.56664
 66.02000, 6.57000,      0.17121,99.94918,50.00000,20.00000,5.56413
 66.65400, 6.58000,      0.17148,99.95993,50.00000,20.00000,5.56159
 67.28800, 6.59000,      0.17179,99.97280,50.00000,20.00000,5.55906
 67.93100, 6.60000,      0.17188,99.96573,50.00000,20.00000,5.55648
 68.57700, 6.61000,      0.17196,99.95635,50.00000,20.00000,5.55389
 69.22700, 6.62000,      0.17201,99.96457,50.00000,20.00000,5.55128
 69.88500, 6.63000,      0.17192,99.97280,50.00000,20.00000,5.54864
 70.54700, 6.64000,      0.17170,99.96099,50.00000,20.00000,5.54599
 71.21300, 6.65000,      0.17151,99.94686,50.00000,20.00000,5.54331
 71.88400, 6.66000,      0.17118,99.95160,50.00000,20.00000,5.54061
 72.56000, 6.67000,      0.17083,99.96225,50.00000,20.00000,5.53790
 73.23800, 6.68000,      0.17026,99.95635,50.00000,20.00000,5.53517
 73.92300, 6.69000,      0.16971,99.94928,50.00000,20.00000,5.53241
 74.61200, 6.70000,      0.16925,99.95624,50.00000,20.00000,5.52964
 75.30500, 6.71000,      0.16857,99.96109,50.00000,20.00000,5.52685
 76.00500, 6.72000,      0.16794,99.95044,50.00000,20.00000,5.52402
 76.70700, 6.73000,      0.16699,99.93747,50.00000,20.00000,5.52119
 77.41400, 6.74000,      0.16615,99.94338,50.00000,20.00000,5.51834
 78.12200, 6.75000,      0.16521,99.95276,50.00000,20.00000,5.51548
 78.83600, 6.76000,      0.16436,99.94686,50.00000,20.00000,5.51260
 79.55600, 6.77000,      0.16327,99.94222,50.00000,20.00000,5.50969
 80.27900, 6.78000,      0.16216,99.94928,50.00000,20.00000,5.50676
 81.00300, 6.79000,      0.16087,99.95751,50.00000,20.00000,5.50383
 81.73500, 6.80000,      0.15983,99.95287,50.00000,20.00000,5.50087
 82.47200, 6.81000,      0.15867,99.94686,50.00000,20.00000,5.49789
 83.21000, 6.82000,      0.15749,99.95044,50.00000,20.00000,5.49490
 83.95200, 6.83000,      0.15622,99.95392,50.00000,20.00000,5.49189
 84.69800, 6.84000,      0.15490,99.94454,50.00000,20.00000,5.48886
 85.44900, 6.85000,      0.15355,99.92925,50.00000,20.00000,5.48582
 86.20500, 6.86000,      0.15224,99.93863,50.00000,20.00000,5.48275
 86.96100, 6.87000,      0.15096,99.92925,50.00000,20.00000,5.47968
 87.72300, 6.88000,      0.14958,99.92809,50.00000,20.00000,5.47658
 88.48700, 6.89000,      0.14842,99.91744,50.00000,20.00000,5.47347
 89.25600, 6.90000,      0.14724,99.91153,50.00000,20.00000,5.47035
 90.02500, 6.91000,      0.14601,99.90573,50.00000,20.00000,5.46722
 90.80100, 6.92000,      0.14462,99.90331,50.00000,20.00000,5.46406
 91.57700, 6.93000,      0.14329,99.90088,50.00000,20.00000,5.46090
 92.35600, 6.94000,      0.14231,99.90331,50.00000,20.00000,5.45772
 93.14100, 6.95000,      0.14092,99.90331,50.00000,20.00000,5.45452
 93.92800, 6.96000,      0.13966,99.90215,50.00000,20.00000,5.45131
 94.71700, 6.97000,      0.13867,99.89972,50.00000,20.00000,5.44809
 95.50900, 6.98000,      0.13748,99.89498,50.00000,20.00000,5.44486
 96.30600, 6.99000,      0.13642,99.88559,50.00000,20.00000,5.44160
 97.10300, 7.00000,      0.13531,99.88443,50.00000,20.00000,5.43834
 97.90600, 7.01000,      0.13413,99.86799,50.00000,20.00000,5.43506
 98.70700, 7.02000,      0.13312,99.87621,50.00000,20.00000,5.43178
 99.51300, 7.03000,      0.13225,99.86440,50.00000,20.00000,5.42848
100.32100, 7.04000,      0.13089,99.86440,50.00000,20.00000,5.42518
101.13700, 7.05000,      0.12972,99.86197,50.00000,20.00000,5.42183
101.94500, 7.06000,      0.12884,99.85966,50.00000,20.00000,5.41852
102.76200, 7.07000,      0.12757,99.84901,50.00000,20.00000,5.41517
103.57900, 7.08000,      0.12634,99.85607,50.00000,20.00000,5.41182
104.40200, 7.09000,      0.12512,99.84078,50.00000,20.00000,5.40845
105.22500, 7.10000,      0.12373,99.83372,50.00000,20.00000,5.40507
106.04500, 7.11000,      0.12230,99.81959,50.00000,20.00000,5.40170
106.87300, 7.12000,      0.12095,99.81727,50.00000,20.00000,5.39830
107.70100, 7.13000,      0.11941,99.81368,50.00000,20.00000,5.39490
108.53500, 7.14000,      0.11773,99.80187,50.00000,20.00000,5.39147
109.36300, 7.15000,      0.11604,99.80187,50.00000,20.00000,5.38806
110.20200, 7.16000,      0.11413,99.79839,50.00000,20.00000,5.38461
111.03700, 7.17000,      0.11220,99.78542,50.00000,20.00000,5.38117
111.87300, 7.18000,      0.10998,99.78542,50.00000,20.00000,5.37773
112.71200, 7.19000,      0.10752,99.77836,50.00000,20.00000,5.37427
113.55300, 7.20000,      0.10504,99.76887,50.00000,20.00000,5.37081
114.39600, 7.21000,      0.10267,99.76887,50.00000,20.00000,5.36733
115.23900, 7.22000, 9.976631e-02,99.76887,50.00000,20.00000,5.36385
116.08100, 7.23000, 9.663434e-02,99.76180,50.00000,20.00000,5.36038
116.92700, 7.24000, 9.315321e-02,99.74767,50.00000,20.00000,5.35689
117.77700, 7.25000, 8.953259e-02,99.74061,50.00000,20.00000,5.35338
118.62300, 7.26000, 8.602728e-02,99.74061,50.00000,20.00000,5.34988
119.47600, 7.27000, 8.209653e-02,99.73702,50.00000,20.00000,5.34636
120.32400, 7.28000, 7.764837e-02,99.71351,50.00000,20.00000,5.34285
121.17800, 7.29000, 7.251673e-02,99.70993,50.00000,20.00000,5.33932
122.03000, 7.30000, 6.767974e-02,99.70993,50.00000,20.00000,5.33580
122.88200, 7.31000, 6.254972e-02,99.70286,50.00000,20.00000,5.33227
123.73700, 7.32000, 5.738287e-02,99.69464,50.00000,20.00000,5.32874
124.59100, 7.33000, 5.204294e-02,99.69464,50.00000,20.00000,5.32520
125.44800, 7.34000, 4.603090e-02,99.68641,50.00000,20.00000,5.32165
126.30300, 7.35000, 3.996540e-02,99.67692,50.00000,20.00000,5.31811
127.15900, 7.36000, 3.363451e-02,99.67344,50.00000,20.00000,5.31456
128.01900, 7.37000, 2.690143e-02,99.65931,50.00000,20.00000,5.31100
128.87500, 7.38000, 2.011378e-02,99.65931,50.00000,20.00000,5.30745
129.73500, 7.39000, 1.298340e-02,99.64508,50.00000,20.00000,5.30388
130.59100, 7.40000, 5.205947e-03,99.63801,50.00000,20.00000,5.30033
131.45100, 7.41000,-2.399691e-03,99.62388,50.00000,20.00000,5.29676
132.31000, 7.42000,-1.028915e-02,99.61682,50.00000,20.00000,5.29320
133.17101, 7.43000,-1.823489e-02,99.60269,50.00000,20.00000,5.28962
134.02901, 7.44000,-2.634352e-02,99.60269,50.00000,20.00000,5.28606
134.89000, 7.45000,-3.470684e-02,99.59795,50.00000,20.00000,5.28248
135.74699, 7.46000,-4.350806e-02,99.59204,50.00000,20.00000,5.27892
136.60899, 7.47000,-5.248912e-02,99.58266,50.00000,20.00000,5.27534
137.46500, 7.48000,-6.192465e-02,99.58034,50.00000,20.00000,5.27178
138.32500, 7.49000,-7.118992e-02,99.57675,50.00000,20.00000,5.26820
139.18500, 7.50000,-8.045251e-02,99.56378,50.00000,20.00000,5.26462
140.04401, 7.51000,-8.983468e-02,99.56030,50.00000,20.00000,5.26105
140.90100, 7.52000,-9.922946e-02,99.55440,50.00000,20.00000,5.25748
141.75700, 7.53000,     -0.10881,99.54375,50.00000,20.00000,5.25392
142.61400, 7.54000,     -0.11865,99.53679,50.00000,20.00000,5.25035
143.47301, 7.55000,     -0.12959,99.53668,50.00000,20.00000,5.24678
144.32800, 7.56000,     -0.13953,99.52139,50.00000,20.00000,5.24322
145.18401, 7.57000,     -0.14945,99.52371,50.00000,20.00000,5.23965
146.03999, 7.58000,     -0.15928,99.51549,50.00000,20.00000,5.23608
146.89200, 7.59000,     -0.16906,99.51306,50.00000,20.00000,5.23253
147.74699, 7.60000,     -0.17885,99.50842,50.00000,20.00000,5.22897
148.59801, 7.61000,     -0.18876,99.50252,50.00000,20.00000,5.22542
149.45000, 7.62000,     -0.19855,99.50484,50.00000,20.00000,5.22187
150.30099, 7.63000,     -0.20844,99.49661,50.00000,20.00000,5.21832
151.15199, 7.64000,     -0.21816,99.49661,50.00000,20.00000,5.21477
152.00200, 7.65000,     -0.22765,99.49313,50.00000,20.00000,5.21122
152.84900, 7.66000,     -0.23709,99.48723,50.00000,20.00000,5.20769
153.69299, 7.67000,     -0.24673,99.48839,50.00000,20.00000,5.20417
154.53999, 7.68000,     -0.25611,99.48132,50.00000,20.00000,5.20063
155.38400, 7.69000,     -0.26548,99.47774,50.00000,20.00000,5.19711
156.22900, 7.70000,     -0.27474,99.47415,50.00000,20.00000,5.19358
157.06799, 7.71000,     -0.28365,99.46361,50.00000,20.00000,5.19008
157.91100, 7.72000,     -0.29273,99.46235,50.00000,20.00000,5.18656
158.74899, 7.73000,     -0.30165,99.45539,50.00000,20.00000,5.18306
159.58600, 7.74000,     -0.31038,99.44706,50.00000,20.00000,5.17956
160.42400, 7.75000,     -0.31894,99.44706,50.00000,20.00000,5.17606
161.25700, 7.76000,     -0.32744,99.43883,50.00000,20.00000,5.17258
162.08800, 7.77000,     -0.33558,99.44600,50.00000,20.00000,5.16911
162.92200, 7.78000,     -0.34363,99.44358,50.00000,20.00000,5.16563
163.75200, 7.79000,     -0.35159,99.44474,50.00000,20.00000,5.16216
164.58099, 7.80000,     -0.35937,99.44706,50.00000,20.00000,5.15869
165.40300, 7.81000,     -0.36684,99.43535,50.00000,20.00000,5.15526
166.23100, 7.82000,     -0.37422,99.44706,50.00000,20.00000,5.15180
167.05400, 7.83000,     -0.38139,99.43883,50.00000,20.00000,5.14835
167.87601, 7.84000,     -0.38840,99.43293,50.00000,20.00000,5.14492
168.69000, 7.85000,     -0.39532,99.43177,50.00000,20.00000,5.14151
169.51100, 7.86000,     -0.40182,99.41289,50.00000,20.00000,5.13808
170.32500, 7.87000,     -0.40813,99.41996,50.00000,20.00000,5.13468
171.13600, 7.88000,     -0.41453,99.41057,50.00000,20.00000,5.13129
171.94400, 7.89000,     -0.42056,99.40699,50.00000,20.00000,5.12791
172.75700, 7.90000,     -0.42591,99.40351,50.00000,20.00000,5.12451
173.56599, 7.91000,     -0.43140,99.39644,50.00000,20.00000,5.12112
174.36800, 7.92000,     -0.43641,99.39402,50.00000,20.00000,5.11777
175.17300, 7.93000,     -0.44151,99.39170,50.00000,20.00000,5.11440
175.97301, 7.94000,     -0.44644,99.39170,50.00000,20.00000,5.11106
176.77299, 7.95000,     -0.45091,99.38695,50.00000,20.00000,5.10771
177.56799, 7.96000,     -0.45516,99.37757,50.00000,20.00000,5.10438
178.35899, 7.97000,     -0.45913,99.37282,50.00000,20.00000,5.10107
179.14900, 7.98000,     -0.46310,99.36808,50.00000,20.00000,5.09777
179.93800, 7.99000,     -0.46672,99.35163,50.00000,20.00000,5.09447
180.72400, 8.00000,     -0.46988,99.35163,50.00000,20.00000,5.09118
181.50800, 8.01000,     -0.47265,99.33276,50.00000,20.00000,5.08790
182.28900, 8.02000,     -0.47537,99.33982,50.00000,20.00000,5.08463
183.06599, 8.03000,     -0.47788,99.32453,50.00000,20.00000,5.08138
183.84300, 8.04000,     -0.48001,99.31504,50.00000,20.00000,5.07813
184.61501, 8.05000,     -0.48171,99.31040,50.00000,20.00000,5.07490
185.38800, 8.06000,     -0.48347,99.28678,50.00000,20.00000,5.07167
186.15800, 8.07000,     -0.48488,99.29395,50.00000,20.00000,5.06845
186.92400, 8.08000,     -0.48599,99.27740,50.00000,20.00000,5.06525
187.68900, 8.09000,     -0.48705,99.26443,50.00000,20.00000,5.06205
188.44600, 8.10000,     -0.48761,99.26084,50.00000,20.00000,5.05888
189.20300, 8.11000,     -0.48801,99.23722,50.00000,20.00000,5.05571
189.95700, 8.12000,     -0.48802,99.24313,50.00000,20.00000,5.05256
190.71100, 8.13000,     -0.48785,99.21961,50.00000,20.00000,5.04940
191.46001, 8.14000,     -0.48696,99.20433,50.00000,20.00000,5.04627
192.20700, 8.15000,     -0.48624,99.19484,50.00000,20.00000,5.04315
192.95300, 8.16000,     -0.48482,99.17596,50.00000,20.00000,5.04003
193.69501, 8.17000,     -0.48302,99.16426,50.00000,20.00000,5.03693
194.43100, 8.18000,     -0.48113,99.14180,50.00000,20.00000,5.03385
195.16800, 8.19000,     -0.47923,99.13821,50.00000,20.00000,5.03077
195.89700, 8.20000,     -0.47680,99.11944,50.00000,20.00000,5.02772
196.63300, 8.21000,     -0.47396,99.10289,50.00000,20.00000,5.02464
197.35699, 8.22000,     -0.47115,99.08054,50.00000,20.00000,5.02162
198.08400, 8.23000,     -0.46817,99.06641,50.00000,20.00000,5.01858
198.80200, 8.24000,     -0.46492,99.05808,50.00000,20.00000,5.01557
199.51900, 8.25000,     -0.46141,99.03699,50.00000,20.00000,5.01258
200.23599, 8.26000,     -0.45785,99.01801,50.00000,20.00000,5.00958
200.94800, 8.27000,     -0.45376,99.01094,50.00000,20.00000,5.00661
201.65601, 8.28000,     -0.44958,98.99449,50.00000,20.00000,5.00365
202.36501, 8.29000,     -0.44502,98.98152,50.00000,20.00000,5.00068
203.06599, 8.30000,     -0.44039,98.94620,50.00000,20.00000,4.99776
203.76601, 8.31000,     -0.43543,98.93429,50.00000,20.00000,4.99483
204.46001, 8.32000,     -0.43043,98.91784,50.00000,20.00000,4.99193
205.15800, 8.33000,     -0.42507,98.89316,50.00000,20.00000,4.98902
205.85001, 8.34000,     -0.41946,98.86944,50.00000,20.00000,4.98613
206.53600, 8.35000,     -0.41351,98.84835,50.00000,20.00000,4.98326
207.22099, 8.36000,     -0.40747,98.82937,50.00000,20.00000,4.98040
207.90199, 8.37000,     -0.40101,98.80470,50.00000,20.00000,4.97756
208.58299, 8.38000,     -0.39454,98.76811,50.00000,20.00000,4.97472
209.25999, 8.39000,     -0.38758,98.75166,50.00000,20.00000,4.97189
209.93201, 8.40000,     -0.38060,98.71749,50.00000,20.00000,4.96908
210.60201, 8.41000,     -0.37312,98.69630,50.00000,20.00000,4.96629
211.26700, 8.42000,     -0.36529,98.65855,50.00000,20.00000,4.96351
211.92999, 8.43000,     -0.35730,98.63957,50.00000,20.00000,4.96075
212.59200, 8.44000,     -0.34908,98.61848,50.00000,20.00000,4.95798
213.25101, 8.45000,     -0.34030,98.59012,50.00000,20.00000,4.95524
213.90300, 8.46000,     -0.33145,98.56534,50.00000,20.00000,4.95252
214.55499, 8.47000,     -0.32234,98.53835,50.00000,20.00000,4.94980
215.20399, 8.48000,     -0.31290,98.51114,50.00000,20.00000,4.94709
215.84900, 8.49000,     -0.30303,98.47814,50.00000,20.00000,4.94440
216.49100, 8.50000,     -0.29304,98.42858,50.00000,20.00000,4.94172
217.13100, 8.51000,     -0.28287,98.40507,50.00000,20.00000,4.93906
217.76801, 8.52000,     -0.27230,98.36500,50.00000,20.00000,4.93640
218.39900, 8.53000,     -0.26160,98.32609,50.00000,20.00000,4.93377
219.03000, 8.54000,     -0.25067,98.28370,50.00000,20.00000,4.93114
219.65700, 8.55000,     -0.23932,98.25544,50.00000,20.00000,4.92853
220.28500, 8.56000,     -0.22768,98.22824,50.00000,20.00000,4.92591
220.90401, 8.57000,     -0.21587,98.18111,50.00000,20.00000,4.92334
221.52499, 8.58000,     -0.20377,98.14336,50.00000,20.00000,4.92075
222.13901, 8.59000,     -0.19159,98.10329,50.00000,20.00000,4.91819
222.75301, 8.60000,     -0.17886,98.07387,50.00000,20.00000,4.91564
223.36200, 8.61000,     -0.16610,98.02083,50.00000,20.00000,4.91310
223.96500, 8.62000,     -0.15331,97.97950,50.00000,20.00000,4.91059
224.57001, 8.63000,     -0.14012,97.94059,50.00000,20.00000,4.90807
225.17300, 8.64000,     -0.12672,97.90411,50.00000,20.00000,4.90556
225.76801, 8.65000,     -0.11324,97.86161,50.00000,20.00000,4.90309
226.36501, 8.66000,-9.965978e-02,97.80625,50.00000,20.00000,4.90060
226.95500, 8.67000,-8.589704e-02,97.77916,50.00000,20.00000,4.89815
227.54700, 8.68000,-7.184144e-02,97.73086,50.00000,20.00000,4.89569
228.13100, 8.69000,-5.793570e-02,97.68953,50.00000,20.00000,4.89326
228.71500, 8.70000,-4.372007e-02,97.62468,50.00000,20.00000,4.89083
229.29601, 8.71000,-2.963836e-02,97.58577,50.00000,20.00000,4.88842
229.87300, 8.72000,-1.534509e-02,97.54212,50.00000,20.00000,4.88602
230.44901, 8.73000,-8.236379e-04,97.48919,50.00000,20.00000,4.88362
231.01900, 8.74000, 1.331645e-02,97.43499,50.00000,20.00000,4.88126
231.58800, 8.75000, 2.773405e-02,97.39250,50.00000,20.00000,4.87889
232.15601, 8.76000, 4.168719e-02,97.35011,50.00000,20.00000,4.87653
232.72000, 8.77000, 5.583536e-02,97.29591,50.00000,20.00000,4.87419
233.27901, 8.78000, 6.996364e-02,97.23338,50.00000,20.00000,4.87187
233.84100, 8.79000, 8.402300e-02,97.18625,50.00000,20.00000,4.86954
234.39400, 8.80000, 9.789673e-02,97.13785,50.00000,20.00000,4.86724
234.94600, 8.81000,      0.11160,97.07785,50.00000,20.00000,4.86495
235.49500, 8.82000,      0.12512,97.01301,50.00000,20.00000,4.86267
236.04300, 8.83000,      0.13850,96.97399,50.00000,20.00000,4.86040
236.58600, 8.84000,      0.15162,96.92454,50.00000,20.00000,4.85815
237.12900, 8.85000,      0.16444,96.87614,50.00000,20.00000,4.85589
237.66800, 8.86000,      0.17692,96.80317,50.00000,20.00000,4.85366
238.20599, 8.87000,      0.18912,96.75720,50.00000,20.00000,4.85143
238.74001, 8.88000,      0.20122,96.70174,50.00000,20.00000,4.84921
239.27299, 8.89000,      0.21301,96.64395,50.00000,20.00000,4.84701
239.80200, 8.90000,      0.22428,96.56972,50.00000,20.00000,4.84481
240.32899, 8.91000,      0.23508,96.52375,50.00000,20.00000,4.84263
240.85201, 8.92000,      0.24561,96.46713,50.00000,20.00000,4.84046
241.37300, 8.93000,      0.25561,96.40586,50.00000,20.00000,4.83830
241.89000, 8.94000,      0.26510,96.32921,50.00000,20.00000,4.83616
242.40800, 8.95000,      0.27434,96.28323,50.00000,20.00000,4.83402
242.92200, 8.96000,      0.28322,96.23146,50.00000,20.00000,4.83189
243.43401, 8.97000,      0.29134,96.16777,50.00000,20.00000,4.82977
243.94400, 8.98000,      0.29893,96.10524,50.00000,20.00000,4.82766
244.45300, 8.99000,      0.30645,96.05579,50.00000,20.00000,4.82555
244.95500, 9.00000,      0.31303,96.00507,50.00000,20.00000,4.82348
245.45799, 9.01000,      0.31914,95.93791,50.00000,20.00000,4.82140
245.95599, 9.02000,      0.32480,95.86599,50.00000,20.00000,4.81934
246.45599, 9.03000,      0.32990,95.81169,50.00000,20.00000,4.81727
246.95200, 9.04000,      0.33435,95.76340,50.00000,20.00000,4.81522
247.44501, 9.05000,      0.33839,95.69971,50.00000,20.00000,4.81318
247.93600, 9.06000,      0.34201,95.63381,50.00000,20.00000,4.81115
248.42599, 9.07000,      0.34485,95.58541,50.00000,20.00000,4.80913
248.91400, 9.08000,      0.34700,95.53712,50.00000,20.00000,4.80711
249.39700, 9.09000,      0.34873,95.47459,50.00000,20.00000,4.80512
249.88100, 9.10000,      0.35029,95.40384,50.00000,20.00000,4.80312
250.36099, 9.11000,      0.35115,95.35913,50.00000,20.00000,4.80114
250.83900, 9.12000,      0.35153,95.29544,50.00000,20.00000,4.79916
251.31700, 9.13000,      0.35141,95.23534,50.00000,20.00000,4.79719
251.78999, 9.14000,      0.35063,95.15752,50.00000,20.00000,4.79524
252.26500, 9.15000,      0.34929,95.10923,50.00000,20.00000,4.79328
252.73500, 9.16000,      0.34782,95.05493,50.00000,20.00000,4.79134
253.20500, 9.17000,      0.34571,94.98660,50.00000,20.00000,4.78940
253.67101, 9.18000,      0.34316,94.92059,50.00000,20.00000,4.78748
254.13699, 9.19000,      0.34038,94.86523,50.00000,20.00000,4.78556
254.60201, 9.20000,      0.33705,94.81578,50.00000,20.00000,4.78364
255.06400, 9.21000,      0.33301,94.75083,50.00000,20.00000,4.78174
255.52000, 9.22000,      0.32892,94.68134,50.00000,20.00000,4.77986
255.98100, 9.23000,      0.32453,94.63885,50.00000,20.00000,4.77796
256.43900, 9.24000,      0.31983,94.58465,50.00000,20.00000,4.77607
256.89200, 9.25000,      0.31475,94.53520,50.00000,20.00000,4.77420
257.34399, 9.26000,      0.30937,94.45970,50.00000,20.00000,4.77234
257.79700, 9.27000,      0.30344,94.42206,50.00000,20.00000,4.77048
258.24600, 9.28000,      0.29744,94.37134,50.00000,20.00000,4.76863
258.69400, 9.29000,      0.29120,94.31587,50.00000,20.00000,4.76679
259.14200, 9.30000,      0.28478,94.25461,50.00000,20.00000,4.76494
259.58701, 9.31000,      0.27814,94.20748,50.00000,20.00000,4.76311
260.03400, 9.32000,      0.27138,94.16393,50.00000,20.00000,4.76127
260.47501, 9.33000,      0.26452,94.10024,50.00000,20.00000,4.75946
260.91599, 9.34000,      0.25719,94.04014,50.00000,20.00000,4.75765
261.35400, 9.35000,      0.24959,93.99290,50.00000,20.00000,4.75585
261.79501, 9.36000,      0.24210,93.94102,50.00000,20.00000,4.75403
262.23199, 9.37000,      0.23446,93.88451,50.00000,20.00000,4.75224
262.66599, 9.38000,      0.22655,93.81491,50.00000,20.00000,4.75045
263.10101, 9.39000,      0.21871,93.78191,50.00000,20.00000,4.74867
263.53601, 9.40000,      0.21088,93.72771,50.00000,20.00000,4.74688
263.96600, 9.41000,      0.20282,93.67942,50.00000,20.00000,4.74511
264.39801, 9.42000,      0.19460,93.61215,50.00000,20.00000,4.74334
264.82700, 9.43000,      0.18639,93.56269,50.00000,20.00000,4.74158
265.25500, 9.44000,      0.17813,93.51556,50.00000,20.00000,4.73982
265.68301, 9.45000,      0.17003,93.44713,50.00000,20.00000,4.73807
266.10999, 9.46000,      0.16155,93.37416,50.00000,20.00000,4.73632
266.53000, 9.47000,      0.15330,93.33757,50.00000,20.00000,4.73459
266.95599, 9.48000,      0.14501,93.28337,50.00000,20.00000,4.73285
267.38101, 9.49000,      0.13657,93.22201,50.00000,20.00000,4.73110
267.80301, 9.50000,      0.12839,93.16538,50.00000,20.00000,4.72937
268.22501, 9.51000,      0.11993,93.12184,50.00000,20.00000,4.72764
268.64499, 9.52000,      0.11158,93.06753,50.00000,20.00000,4.72592
269.06299, 9.53000,      0.10338,93.01576,50.00000,20.00000,4.72421
269.48099, 9.54000, 9.520747e-02,92.94743,50.00000,20.00000,4.72250
269.89801, 9.55000, 8.697705e-02,92.90019,50.00000,20.00000,4.72079
270.31601, 9.56000, 7.868959e-02,92.86013,50.00000,20.00000,4.71908
270.73001, 9.57000, 7.032766e-02,92.79886,50.00000,20.00000,4.71738
271.14499, 9.58000, 6.243742e-02,92.74224,50.00000,20.00000,4.71568
271.56000, 9.59000, 5.426845e-02,92.69859,50.00000,20.00000,4.71399
271.97299, 9.60000, 4.605937e-02,92.65029,50.00000,20.00000,4.71230
272.38400, 9.61000, 3.810049e-02,92.59494,50.00000,20.00000,4.71061
272.79599, 9.62000, 3.005054e-02,92.52186,50.00000,20.00000,4.70893
273.20901, 9.63000, 2.211447e-02,92.47705,50.00000,20.00000,4.70724
273.61700, 9.64000, 1.418990e-02,92.42981,50.00000,20.00000,4.70557
274.02802, 9.65000, 6.362007e-03,92.36739,50.00000,20.00000,4.70389
274.43900, 9.66000,-1.248904e-03,92.29780,50.00000,20.00000,4.70221
274.84698, 9.67000,-8.831002e-03,92.26131,50.00000,20.00000,4.70055
275.25400, 9.68000,-1.657255e-02,92.21186,50.00000,20.00000,4.69888
275.66299, 9.69000,-2.411410e-02,92.14817,50.00000,20.00000,4.69721
276.07001, 9.70000,-3.186654e-02,92.08565,50.00000,20.00000,4.69555
276.48001, 9.71000,-3.952175e-02,92.04083,50.00000,20.00000,4.69388
276.88199, 9.72000,-4.682205e-02,91.98547,50.00000,20.00000,4.69224
277.28900, 9.73000,-5.411054e-02,91.92179,50.00000,20.00000,4.69058
277.69299, 9.74000,-6.150696e-02,91.86052,50.00000,20.00000,4.68893
278.09799, 9.75000,-6.878851e-02,91.81455,50.00000,20.00000,4.68727
278.50201, 9.76000,-7.598927e-02,91.75909,50.00000,20.00000,4.68563
278.90799, 9.77000,-8.324676e-02,91.70130,50.00000,20.00000,4.68397
279.31299, 9.78000,-9.033749e-02,91.63656,50.00000,20.00000,4.68232
279.71301, 9.79000,-9.736405e-02,91.58468,50.00000,20.00000,4.68069
280.11801, 9.80000,     -0.10436,91.52574,50.00000,20.00000,4.67904
280.51999, 9.81000,     -0.11131,91.46912,50.00000,20.00000,4.67740
280.92099, 9.82000,     -0.11820,91.39489,50.00000,20.00000,4.67577
281.32300, 9.83000,     -0.12514,91.34069,50.00000,20.00000,4.67413
281.72699, 9.84000,     -0.13214,91.28059,50.00000,20.00000,4.67249
282.12701, 9.85000,     -0.13908,91.21099,50.00000,20.00000,4.67086
282.53000, 9.86000,     -0.14584,91.14509,50.00000,20.00000,4.66922
282.93301, 9.87000,     -0.15253,91.08963,50.00000,20.00000,4.66758
283.33200, 9.88000,     -0.15907,91.02837,50.00000,20.00000,4.66595
283.73300, 9.89000,     -0.16573,90.95877,50.00000,20.00000,4.66432
284.13599, 9.90000,     -0.17238,90.88328,50.00000,20.00000,4.66268
284.53601, 9.91000,     -0.17900,90.82676,50.00000,20.00000,4.66106
284.93701, 9.92000,     -0.18548,90.76307,50.00000,20.00000,4.65943
285.33600, 9.93000,     -0.19208,90.69706,50.00000,20.00000,4.65781
285.73700, 9.94000,     -0.19848,90.62157,50.00000,20.00000,4.65618
286.14099, 9.95000,     -0.20490,90.56389,50.00000,20.00000,4.65454
286.53900, 9.96000,     -0.21149,90.50020,50.00000,20.00000,4.65292
286.94101, 9.97000,     -0.21805,90.43187,50.00000,20.00000,4.65129
287.34201, 9.98000,     -0.22442,90.35986,50.00000,20.00000,4.64966
287.74200, 9.99000,     -0.23085,90.30091,50.00000,20.00000,4.64804
288.14301,10.00000,     -0.23709,90.23375,50.00000,20.00000,4.64641
288.54501,10.01000,     -0.24371,90.15719,50.00000,20.00000,4.64478
288.94601,10.02000,     -0.25022,90.06989,50.00000,20.00000,4.64315
289.34799,10.03000,     -0.25646,90.00979,50.00000,20.00000,4.64152
289.75101,10.04000,     -0.26316,89.94620,50.00000,20.00000,4.63989
290.14999,10.05000,     -0.26960,89.87904,50.00000,20.00000,4.63827
290.55200,10.06000,     -0.27615,89.78951,50.00000,20.00000,4.63664
290.95499,10.07000,     -0.28282,89.72351,50.00000,20.00000,4.63501
291.35699,10.08000,     -0.28947,89.65033,50.00000,20.00000,4.63338
291.76099,10.09000,     -0.29594,89.57019,50.00000,20.00000,4.63174
292.16299,10.10000,     -0.30253,89.48173,50.00000,20.00000,4.63012
292.56699,10.11000,     -0.30941,89.42637,50.00000,20.00000,4.62848
292.96899,10.12000,     -0.31615,89.35446,50.00000,20.00000,4.62685
293.37299,10.13000,     -0.32308,89.27432,50.00000,20.00000,4.62522
293.77600,10.14000,     -0.32968,89.18121,50.00000,20.00000,4.62359
294.17899,10.15000,     -0.33632,89.12227,50.00000,20.00000,4.62196
294.58701,10.16000,     -0.34332,89.05626,50.00000,20.00000,4.62031
294.98999,10.17000,     -0.35036,88.97370,50.00000,20.00000,4.61868
295.39600,10.18000,     -0.35738,88.87585,50.00000,20.00000,4.61704
295.80200,10.19000,     -0.36443,88.80636,50.00000,20.00000,4.61540
296.20999,10.20000,     -0.37167,88.72623,50.00000,20.00000,4.61375
296.61899,10.21000,     -0.37889,88.63428,50.00000,20.00000,4.61210
297.01999,10.22000,     -0.38628,88.53052,50.00000,20.00000,4.61048
297.42999,10.23000,     -0.39368,88.45977,50.00000,20.00000,4.60882
297.83801,10.24000,     -0.40100,88.37963,50.00000,20.00000,4.60718
298.24399,10.25000,     -0.40854,88.29001,50.00000,20.00000,4.60554
298.65399,10.26000,     -0.41635,88.19100,50.00000,20.00000,4.60389
299.06500,10.27000,     -0.42392,88.12615,50.00000,20.00000,4.60223
299.47601,10.28000,     -0.43172,88.04011,50.00000,20.00000,4.60057
299.88400,10.29000,     -0.43932,87.94226,50.00000,20.00000,4.59893
300.29401,10.30000,     -0.44734,87.83270,50.00000,20.00000,4.59728
300.70599,10.31000,     -0.45547,87.75604,50.00000,20.00000,4.59562
301.11801,10.32000,     -0.46367,87.66884,50.00000,20.00000,4.59396
301.53101,10.33000,     -0.47188,87.56983,50.00000,20.00000,4.59229
301.94400,10.34000,     -0.48007,87.45542,50.00000,20.00000,4.59063
302.35699,10.35000,     -0.48838,87.37413,50.00000,20.00000,4.58897
302.77200,10.36000,     -0.49675,87.28334,50.00000,20.00000,4.58730
303.18701,10.37000,     -0.50535,87.18074,50.00000,20.00000,4.58563
303.60300,10.38000,     -0.51406,87.06412,50.00000,20.00000,4.58396
304.01801,10.39000,     -0.52266,86.98272,50.00000,20.00000,4.58229
304.43600,10.40000,     -0.53158,86.89911,50.00000,20.00000,4.58061
304.85400,10.41000,     -0.54053,86.80241,50.00000,20.00000,4.57893
305.27100,10.42000,     -0.54956,86.68210,50.00000,20.00000,4.57725
305.69000,10.43000,     -0.55889,86.59606,50.00000,20.00000,4.57557
306.10800,10.44000,     -0.56812,86.49832,50.00000,20.00000,4.57389
306.52802,10.45000,     -0.57749,86.38750,50.00000,20.00000,4.57220
306.94901,10.46000,     -0.58688,86.26139,50.00000,20.00000,4.57051
307.36899,10.47000,     -0.59637,86.17408,50.00000,20.00000,4.56883
307.79099,10.48000,     -0.60588,86.07623,50.00000,20.00000,4.56714
308.21500,10.49000,     -0.61569,85.96551,50.00000,20.00000,4.56544
308.63901,10.50000,     -0.62546,85.83930,50.00000,20.00000,4.56374
309.06400,10.51000,     -0.63526,85.74977,50.00000,20.00000,4.56203
309.48700,10.52000,     -0.64520,85.64718,50.00000,20.00000,4.56034
309.91400,10.53000,     -0.65533,85.52813,50.00000,20.00000,4.55863
310.34000,10.54000,     -0.66541,85.39253,50.00000,20.00000,4.55692
310.76901,10.55000,     -0.67556,85.29711,50.00000,20.00000,4.55520
311.19601,10.56000,     -0.68576,85.18987,50.00000,20.00000,4.55349
311.62500,10.57000,     -0.69611,85.06724,50.00000,20.00000,4.55178
312.05399,10.58000,     -0.70649,84.92932,50.00000,20.00000,4.55006
312.48499,10.59000,     -0.71714,84.83147,50.00000,20.00000,4.54834
312.91699,10.60000,     -0.72775,84.71242,50.00000,20.00000,4.54661
313.34799,10.61000,     -0.73839,84.58515,50.00000,20.00000,4.54489
313.78201,10.62000,     -0.74902,84.44133,50.00000,20.00000,4.54315
314.21701,10.63000,     -0.75960,84.33873,50.00000,20.00000,4.54142
314.64801,10.64000,     -0.77041,84.22327,50.00000,20.00000,4.53969
315.08600,10.65000,     -0.78125,84.09126,50.00000,20.00000,4.53795
315.51999,10.66000,     -0.79218,83.94269,50.00000,20.00000,4.53621
315.95700,10.67000,     -0.80312,83.83661,50.00000,20.00000,4.53447
316.39600,10.68000,     -0.81403,83.71873,50.00000,20.00000,4.53272
316.83600,10.69000,     -0.82482,83.58439,50.00000,20.00000,4.53096
317.27499,10.70000,     -0.83567,83.43224,50.00000,20.00000,4.52921
317.71500,10.71000,     -0.84687,83.32500,50.00000,20.00000,4.52746
318.15500,10.72000,     -0.85788,83.20480,50.00000,20.00000,4.52571
318.59601,10.73000,     -0.86880,83.06804,50.00000,20.00000,4.52395
319.04199,10.74000,     -0.87969,82.91008,50.00000,20.00000,4.52217
319.48499,10.75000,     -0.89064,82.79694,50.00000,20.00000,4.52041
319.92999,10.76000,     -0.90149,82.67083,50.00000,20.00000,4.51864
320.37500,10.77000,     -0.91231,82.52585,50.00000,20.00000,4.51687
320.82199,10.78000,     -0.92317,82.35957,50.00000,20.00000,4.51509
321.26599,10.79000,     -0.93380,82.24168,50.00000,20.00000,4.51333
321.71701,10.80000,     -0.94455,82.11209,50.00000,20.00000,4.51153
322.16501,10.81000,     -0.95516,81.96827,50.00000,20.00000,4.50975
322.61301,10.82000,     -0.96605,81.80557,50.00000,20.00000,4.50797
323.06500,10.83000,     -0.97682,81.69127,50.00000,20.00000,4.50618
323.51999,10.84000,     -0.98716,81.56157,50.00000,20.00000,4.50437
323.97101,10.85000,     -0.99747,81.41184,50.00000,20.00000,4.50258
324.42200,10.86000,     -1.00771,81.23860,50.00000,20.00000,4.50079
324.87799,10.87000,     -1.01797,81.11481,50.00000,20.00000,4.49899
325.33200,10.88000,     -1.02825,80.97689,50.00000,20.00000,4.49719
325.78799,10.89000,     -1.03840,80.82252,50.00000,20.00000,4.49538
326.24500,10.90000,     -1.04836,80.64221,50.00000,20.00000,4.49357
326.70001,10.91000,     -1.05842,80.51368,50.00000,20.00000,4.49176
327.16000,10.92000,     -1.06849,80.37333,50.00000,20.00000,4.48994
327.62000,10.93000,     -1.07835,80.21074,50.00000,20.00000,4.48812
328.07901,10.94000,     -1.08788,80.02442,50.00000,20.00000,4.48631
328.54199,10.95000,     -1.09756,79.89125,50.00000,20.00000,4.48447
329.00201,10.96000,     -1.10714,79.74394,50.00000,20.00000,4.48266
329.46701,10.97000,     -1.11644,79.57892,50.00000,20.00000,4.48082
329.92999,10.98000,     -1.12577,79.39261,50.00000,20.00000,4.47899
330.39600,10.99000,     -1.13500,79.26059,50.00000,20.00000,4.47715
330.85999,11.00000,     -1.14394,79.11213,50.00000,20.00000,4.47531
331.32599,11.01000,     -1.15286,78.94352,50.00000,20.00000,4.47347
331.79199,11.02000,     -1.16164,78.74898,50.00000,20.00000,4.47163
332.26001,11.03000,     -1.17037,78.61106,50.00000,20.00000,4.46979
332.72900,11.04000,     -1.17904,78.45785,50.00000,20.00000,4.46794
333.19800,11.05000,     -1.18760,78.28577,50.00000,20.00000,4.46609
333.66800,11.06000,     -1.19595,78.08891,50.00000,20.00000,4.46424
334.13901,11.07000,     -1.20373,77.94624,50.00000,20.00000,4.46238
334.61200,11.08000,     -1.21179,77.78597,50.00000,20.00000,4.46052
335.08499,11.09000,     -1.21979,77.60439,50.00000,20.00000,4.45866
335.56000,11.10000,     -1.22763,77.39340,50.00000,20.00000,4.45679
336.03400,11.11000,     -1.23524,77.24135,50.00000,20.00000,4.45492
336.50900,11.12000,     -1.24289,77.06579,50.00000,20.00000,4.45305
336.98499,11.13000,     -1.25037,76.87947,50.00000,20.00000,4.45118
337.46301,11.14000,     -1.25775,76.66848,50.00000,20.00000,4.44930
337.93799,11.15000,     -1.26490,76.51886,50.00000,20.00000,4.44744
338.41901,11.16000,     -1.27202,76.35257,50.00000,20.00000,4.44555
338.89700,11.17000,     -1.27901,76.16277,50.00000,20.00000,4.44367
339.37799,11.18000,     -1.28582,75.94714,50.00000,20.00000,4.44178
339.85699,11.19000,     -1.29238,75.79267,50.00000,20.00000,4.43990
340.34299,11.20000,     -1.29895,75.62059,50.00000,20.00000,4.43800
340.82700,11.21000,     -1.30540,75.42488,50.00000,20.00000,4.43610
341.30801,11.22000,     -1.31169,75.20092,50.00000,20.00000,4.43422
341.79401,11.23000,     -1.31804,75.04297,50.00000,20.00000,4.43231
342.27899,11.24000,     -1.32423,74.86857,50.00000,20.00000,4.43041
342.76300,11.25000,     -1.33025,74.67044,50.00000,20.00000,4.42852
343.24799,11.26000,     -1.33565,74.44532,50.00000,20.00000,4.42662
343.73700,11.27000,     -1.34150,74.28620,50.00000,20.00000,4.42471
344.22299,11.28000,     -1.34734,74.09999,50.00000,20.00000,4.42281
344.71301,11.29000,     -1.35247,73.88900,50.00000,20.00000,4.42089
345.20200,11.30000,     -1.35790,73.65555,50.00000,20.00000,4.41898
345.69101,11.31000,     -1.36331,73.48937,50.00000,20.00000,4.41707
346.18399,11.32000,     -1.36835,73.30316,50.00000,20.00000,4.41515
346.67200,11.33000,     -1.37324,73.09332,50.00000,20.00000,4.41324
347.16699,11.34000,     -1.37808,72.85397,50.00000,20.00000,4.41131
347.66101,11.35000,     -1.38260,72.68188,50.00000,20.00000,4.40938
348.15201,11.36000,     -1.38720,72.49335,50.00000,20.00000,4.40747
348.64899,11.37000,     -1.39175,72.27877,50.00000,20.00000,4.40553
349.14401,11.38000,     -1.39616,72.03362,50.00000,20.00000,4.40360
349.63599,11.39000,     -1.40050,71.85911,50.00000,20.00000,4.40169
350.13300,11.40000,     -1.40451,71.66467,50.00000,20.00000,4.39975
350.63300,11.41000,     -1.40859,71.44303,50.00000,20.00000,4.39781
351.13000,11.42000,     -1.41269,71.18955,50.00000,20.00000,4.39588
351.62701,11.43000,     -1.41646,71.01040,50.00000,20.00000,4.39394
352.12701,11.44000,     -1.42005,70.81354,50.00000,20.00000,4.39200
352.62500,11.45000,     -1.42385,70.58958,50.00000,20.00000,4.39007
353.12500,11.46000,     -1.42723,70.33377,50.00000,20.00000,4.38812
353.62799,11.47000,     -1.43060,70.15104,50.00000,20.00000,4.38617
354.12799,11.48000,     -1.43430,69.94838,50.00000,20.00000,4.38423
354.63101,11.49000,     -1.43736,69.71735,50.00000,20.00000,4.38228
355.13300,11.50000,     -1.44018,69.46270,50.00000,20.00000,4.38034
355.63599,11.51000,     -1.44314,69.28345,50.00000,20.00000,4.37839
356.13901,11.52000,     -1.44589,69.07720,50.00000,20.00000,4.37644
356.64099,11.53000,     -1.44872,68.84502,50.00000,20.00000,4.37449
357.14700,11.54000,     -1.45129,68.57740,50.00000,20.00000,4.37254
357.65201,11.55000,     -1.45381,68.38413,50.00000,20.00000,4.37058
358.15900,11.56000,     -1.45612,68.16955,50.00000,20.00000,4.36862
358.66599,11.57000,     -1.45847,67.95033,50.00000,20.00000,4.36666
359.17001,11.58000,     -1.46076,67.69801,50.00000,20.00000,4.36471
359.67801,11.59000,     -1.46277,67.42691,50.00000,20.00000,4.36275
360.18399,11.60000,     -1.46453,67.17227,50.00000,20.00000,4.36080
360.69299,11.61000,     -1.46620,66.82926,50.00000,20.00000,4.35883
361.20300,11.62000,     -1.46779,66.59117,50.00000,20.00000,4.35687
361.71301,11.63000,     -1.46921,66.33062,50.00000,20.00000,4.35490
362.22000,11.64000,     -1.47061,66.10434,50.00000,20.00000,4.35295
362.73099,11.65000,     -1.47173,65.84031,50.00000,20.00000,4.35098
363.24200,11.66000,     -1.47272,65.60686,50.00000,20.00000,4.34901
363.75299,11.67000,     -1.47377,65.33112,50.00000,20.00000,4.34704
364.26501,11.68000,     -1.47477,65.09999,50.00000,20.00000,4.34507
364.77600,11.69000,     -1.47562,64.83248,50.00000,20.00000,4.34311
365.29199,11.70000,     -1.47598,64.60262,50.00000,20.00000,4.34112
365.80099,11.71000,     -1.47607,64.33152,50.00000,20.00000,4.33917
366.31601,11.72000,     -1.47628,64.09691,50.00000,20.00000,4.33719
366.82901,11.73000,     -1.47623,63.82107,50.00000,20.00000,4.33522
367.34299,11.74000,     -1.47610,63.57940,50.00000,20.00000,4.33325
367.85800,11.75000,     -1.47604,63.29649,50.00000,20.00000,4.33127
368.37399,11.76000,     -1.47567,63.05250,50.00000,20.00000,4.32929
368.89099,11.77000,     -1.47514,62.77202,50.00000,20.00000,4.32731
369.40601,11.78000,     -1.47458,62.54205,50.00000,20.00000,4.32534
369.92099,11.79000,     -1.47395,62.26389,50.00000,20.00000,4.32337
370.43701,11.80000,     -1.47302,62.02221,50.00000,20.00000,4.32139
370.95300,11.81000,     -1.47185,61.73815,50.00000,20.00000,4.31942
371.47101,11.82000,     -1.47076,61.48709,50.00000,20.00000,4.31743
371.98901,11.83000,     -1.46948,61.19005,50.00000,20.00000,4.31545
372.50601,11.84000,     -1.46780,60.93309,50.00000,20.00000,4.31348
373.02499,11.85000,     -1.46609,60.63015,50.00000,20.00000,4.31150
373.54099,11.86000,     -1.46431,60.36728,50.00000,20.00000,4.30953
374.05899,11.87000,     -1.46256,60.06434,50.00000,20.00000,4.30755
374.57901,11.88000,     -1.46054,59.80263,50.00000,20.00000,4.30557
375.09500,11.89000,     -1.45825,59.49969,50.00000,20.00000,4.30360
375.61801,11.90000,     -1.45590,59.23798,50.00000,20.00000,4.30161
376.13501,11.91000,     -1.45340,58.93146,50.00000,20.00000,4.29964
376.65701,11.92000,     -1.45059,58.66395,50.00000,20.00000,4.29765
377.17499,11.93000,     -1.44764,58.35152,50.00000,20.00000,4.29568
377.69601,11.94000,     -1.44470,58.07927,50.00000,20.00000,4.29370
378.21899,11.95000,     -1.44158,57.76926,50.00000,20.00000,4.29171
378.73801,11.96000,     -1.43827,57.49807,50.00000,20.00000,4.28974
379.25900,11.97000,     -1.43471,57.17857,50.00000,20.00000,4.28776
379.78101,11.98000,     -1.43098,56.90041,50.00000,20.00000,4.28578
380.30099,11.99000,     -1.42721,56.57512,50.00000,20.00000,4.28380
380.82401,12.00000,     -1.42323,56.29095,50.00000,20.00000,4.28182
381.34299,12.01000,     -1.41920,55.95743,50.00000,20.00000,4.27985
381.86499,12.02000,     -1.41495,55.66620,50.00000,20.00000,4.27787
382.38501,12.03000,     -1.41045,55.32435,50.00000,20.00000,4.27590
382.90799,12.04000,     -1.40600,55.02975,50.00000,20.00000,4.27392
383.42999,12.05000,     -1.40111,54.68663,50.00000,20.00000,4.27195
383.95099,12.06000,     -1.39628,54.39434,50.00000,20.00000,4.26998
384.47101,12.07000,     -1.39138,54.05250,50.00000,20.00000,4.26801
384.99500,12.08000,     -1.38605,53.75662,50.00000,20.00000,4.26603
385.51901,12.09000,     -1.38096,53.40887,50.00000,20.00000,4.26405
386.03900,12.10000,     -1.37559,53.10593,50.00000,20.00000,4.26209
386.56100,12.11000,     -1.37013,52.74880,50.00000,20.00000,4.26012
387.08701,12.12000,     -1.36455,52.43880,50.00000,20.00000,4.25813
387.60699,12.13000,     -1.35886,52.07807,50.00000,20.00000,4.25617
388.12701,12.14000,     -1.35321,51.76691,50.00000,20.00000,4.25421
388.65100,12.15000,     -1.34714,51.39913,50.00000,20.00000,4.25224
389.17401,12.16000,     -1.34122,51.07963,50.00000,20.00000,4.25027
389.69400,12.17000,     -1.33530,50.70605,50.00000,20.00000,4.24832
390.21600,12.18000,     -1.32931,50.38539,50.00000,20.00000,4.24635
390.73901,12.19000,     -1.32333,50.01993,50.00000,20.00000,4.24439
391.26001,12.20000,     -1.31738,49.69580,50.00000,20.00000,4.24243
391.78299,12.21000,     -1.31154,49.31620,50.00000,20.00000,4.24046
392.30600,12.22000,     -1.30560,48.98384,50.00000,20.00000,4.23850
392.82700,12.23000,     -1.29953,48.59718,50.00000,20.00000,4.23655
393.35001,12.24000,     -1.29368,48.06554,50.00000,20.00000,4.23458
393.87299,12.25000,     -1.28772,47.69659,50.00000,20.00000,4.23262
394.39200,12.26000,     -1.28194,47.32649,50.00000,20.00000,4.23068
394.91800,12.27000,     -1.27613,46.95870,50.00000,20.00000,4.22871
395.43600,12.28000,     -1.27051,46.58976,50.00000,20.00000,4.22677
395.95499,12.29000,     -1.26538,46.22081,50.00000,20.00000,4.22483
396.48099,12.30000,     -1.26035,45.85060,50.00000,20.00000,4.22286
396.99899,12.31000,     -1.25530,45.47817,50.00000,20.00000,4.22093
397.52200,12.32000,     -1.25112,45.10332,50.00000,20.00000,4.21897
398.04599,12.33000,     -1.24695,44.73195,50.00000,20.00000,4.21702
398.56299,12.34000,     -1.24309,44.35594,50.00000,20.00000,4.21509
399.08801,12.35000,     -1.23964,43.97877,50.00000,20.00000,4.21313
399.60599,12.36000,     -1.23652,43.60034,50.00000,20.00000,4.21120
400.12601,12.37000,     -1.23379,43.22317,50.00000,20.00000,4.20926
400.64700,12.38000,     -1.23156,42.84589,50.00000,20.00000,4.20732
401.16699,12.39000,     -1.23006,42.46640,50.00000,20.00000,4.20538
401.68900,12.40000,     -1.22899,42.08912,50.00000,20.00000,4.20344
402.20700,12.41000,     -1.22831,41.71427,50.00000,20.00000,4.20151
402.72699,12.42000,     -1.22837,41.33942,50.00000,20.00000,4.19958
403.24500,12.43000,     -1.22920,40.96573,50.00000,20.00000,4.19766
403.76599,12.44000,     -1.23071,40.59563,50.00000,20.00000,4.19572
404.28201,12.45000,     -1.23321,40.23143,50.00000,20.00000,4.19381
404.80099,12.46000,     -1.23652,39.87071,50.00000,20.00000,4.19188
405.32300,12.47000,     -1.24049,39.51357,50.00000,20.00000,4.18995
405.84201,12.48000,     -1.24552,39.15749,50.00000,20.00000,4.18802
406.35800,12.49000,     -1.25112,38.80510,50.00000,20.00000,4.18611
406.87601,12.50000,     -1.25788,38.46209,50.00000,20.00000,4.18419
407.39401,12.51000,     -1.26548,38.12615,50.00000,20.00000,4.18228
407.91501,12.52000,     -1.27455,37.79369,50.00000,20.00000,4.18035
408.42899,12.53000,     -1.28435,37.47546,50.00000,20.00000,4.17845
408.94699,12.54000,     -1.29557,37.16535,50.00000,20.00000,4.17653
409.46399,12.55000,     -1.30752,36.85651,50.00000,20.00000,4.17463
409.98001,12.56000,     -1.32030,36.55483,50.00000,20.00000,4.17272
410.49899,12.57000,     -1.33439,36.26128,50.00000,20.00000,4.17081
411.01401,12.58000,     -1.34914,35.97838,50.00000,20.00000,4.16891
411.52802,12.59000,     -1.36495,35.70728,50.00000,20.00000,4.16701
412.04199,12.60000,     -1.38144,35.49977,50.00000,20.00000,4.16512
412.55701,12.61000,     -1.39944,35.26758,50.00000,20.00000,4.16322
413.07300,12.62000,     -1.41779,35.05659,50.00000,20.00000,4.16132
413.58801,12.63000,     -1.43681,34.82082,50.00000,20.00000,4.15943
414.10001,12.64000,     -1.45640,34.59570,50.00000,20.00000,4.15755
414.61801,12.65000,     -1.47643,34.37996,50.00000,20.00000,4.15564
415.13101,12.66000,     -1.49684,34.17720,50.00000,20.00000,4.15376
415.64401,12.67000,     -1.51761,34.01924,50.00000,20.00000,4.15188
416.15799,12.68000,     -1.53873,33.86023,50.00000,20.00000,4.14999
416.67001,12.69000,     -1.55996,33.67391,50.00000,20.00000,4.14811
417.18301,12.70000,     -1.58135,33.53484,50.00000,20.00000,4.14623
417.69901,12.71000,     -1.60253,33.39101,50.00000,20.00000,4.14434
418.21201,12.72000,     -1.62359,33.24139,50.00000,20.00000,4.14246
418.72501,12.73000,     -1.64454,33.08691,50.00000,20.00000,4.14058
419.23499,12.74000,     -1.66514,32.98442,50.00000,20.00000,4.13872
419.74701,12.75000,     -1.68532,32.87951,50.00000,20.00000,4.13685
420.26001,12.76000,     -1.70523,32.76984,50.00000,20.00000,4.13497
420.77301,12.77000,     -1.72475,32.65902,50.00000,20.00000,4.13310
421.28400,12.78000,     -1.74381,32.58827,50.00000,20.00000,4.13123
421.79501,12.79000,     -1.76235,32.50813,50.00000,20.00000,4.12937
422.30701,12.80000,     -1.78047,32.42325,50.00000,20.00000,4.12750
422.81699,12.81000,     -1.79787,32.33363,50.00000,20.00000,4.12564
423.32700,12.82000,     -1.81463,32.27352,50.00000,20.00000,4.12379
423.83801,12.83000,     -1.83095,32.20868,50.00000,20.00000,4.12192
424.34799,12.84000,     -1.84689,32.13919,50.00000,20.00000,4.12007
424.86099,12.85000,     -1.86210,32.06021,50.00000,20.00000,4.11820
425.37000,12.86000,     -1.87689,32.00833,50.00000,20.00000,4.11635
425.88101,12.87000,     -1.89107,31.95414,50.00000,20.00000,4.11450
426.38901,12.88000,     -1.90520,31.89635,50.00000,20.00000,4.11265
426.89700,12.89000,     -1.91872,31.83509,50.00000,20.00000,4.11081
427.40799,12.90000,     -1.93165,31.79724,50.00000,20.00000,4.10895
427.91400,12.91000,     -1.94403,31.76434,50.00000,20.00000,4.10712
428.42300,12.92000,     -1.95638,31.71594,50.00000,20.00000,4.10527
428.92999,12.93000,     -1.96857,31.66058,50.00000,20.00000,4.10344
429.44000,12.94000,     -1.98048,31.62167,50.00000,20.00000,4.10159
429.94800,12.95000,     -1.99210,31.57929,50.00000,20.00000,4.09975
430.45401,12.96000,     -2.00302,31.53795,50.00000,20.00000,4.09792
430.96100,12.97000,     -2.01356,31.49082,50.00000,20.00000,4.09609
431.47000,12.98000,     -2.02362,31.45307,50.00000,20.00000,4.09425
431.97400,12.99000,     -2.03390,31.41184,50.00000,20.00000,4.09243
432.48401,13.00000,     -2.04361,31.36819,50.00000,20.00000,4.09059
432.98801,13.01000,     -2.05297,31.31990,50.00000,20.00000,4.08877
433.49200,13.02000,     -2.06200,31.28331,50.00000,20.00000,4.08695
434.00000,13.03000,     -2.07062,31.24566,50.00000,20.00000,4.08512
434.50299,13.04000,     -2.07873,31.20201,50.00000,20.00000,4.08331
435.00800,13.05000,     -2.08699,31.15013,50.00000,20.00000,4.08149
435.51099,13.06000,     -2.09487,31.12303,50.00000,20.00000,4.07968
436.01501,13.07000,     -2.10241,31.08771,50.00000,20.00000,4.07787
436.51901,13.08000,     -2.10953,31.04522,50.00000,20.00000,4.07606
437.02200,13.09000,     -2.11648,30.99808,50.00000,20.00000,4.07425
437.52399,13.10000,     -2.12333,30.96392,50.00000,20.00000,4.07245
438.02701,13.11000,     -2.13000,30.92617,50.00000,20.00000,4.07064
438.52802,13.12000,     -2.13620,30.88020,50.00000,20.00000,4.06885
439.02899,13.13000,     -2.14237,30.82600,50.00000,20.00000,4.06705
439.53201,13.14000,     -2.14826,30.78593,50.00000,20.00000,4.06525
440.03400,13.15000,     -2.15396,30.74344,50.00000,20.00000,4.06345
440.53601,13.16000,     -2.15943,30.69989,50.00000,20.00000,4.06166
441.03500,13.17000,     -2.16437,30.65624,50.00000,20.00000,4.05987
441.53601,13.18000,     -2.16942,30.62798,50.00000,20.00000,4.05808
442.03601,13.19000,     -2.17435,30.60436,50.00000,20.00000,4.05629
442.53799,13.20000,     -2.17878,30.56545,50.00000,20.00000,4.05450
443.03799,13.21000,     -2.18307,30.52306,50.00000,20.00000,4.05271
443.53601,13.22000,     -2.18739,30.48879,50.00000,20.00000,4.05094
444.03500,13.23000,     -2.19165,30.45231,50.00000,20.00000,4.04916
444.53201,13.24000,     -2.19551,30.40982,50.00000,20.00000,4.04739
445.03299,13.25000,     -2.19928,30.36152,50.00000,20.00000,4.04560
445.53101,13.26000,     -2.20289,30.32377,50.00000,20.00000,4.04383
446.02701,13.27000,     -2.20642,30.28487,50.00000,20.00000,4.04206
446.52701,13.28000,     -2.20978,30.24248,50.00000,20.00000,4.04028
447.02399,13.29000,     -2.21290,30.19766,50.00000,20.00000,4.03852
447.52100,13.30000,     -2.21592,30.16350,50.00000,20.00000,4.03675
448.01700,13.31000,     -2.21868,30.12575,50.00000,20.00000,4.03499
448.51599,13.32000,     -2.22143,30.08336,50.00000,20.00000,4.03322
449.01199,13.33000,     -2.22412,30.04087,50.00000,20.00000,4.03146
449.50699,13.34000,     -2.22674,30.00903,50.00000,20.00000,4.02970
450.00400,13.35000,     -2.22914,29.97718,50.00000,20.00000,4.02794
450.50101,13.36000,     -2.23145,29.94544,50.00000,20.00000,4.02618
450.99301,13.37000,     -2.23357,29.90885,50.00000,20.00000,4.02444
451.48999,13.38000,     -2.23551,29.87944,50.00000,20.00000,4.02268
451.98401,13.39000,     -2.23744,29.84401,50.00000,20.00000,4.02093
452.47601,13.40000,     -2.23937,29.80394,50.00000,20.00000,4.01920
452.97198,13.41000,     -2.24097,29.75681,50.00000,20.00000,4.01744
453.46600,13.42000,     -2.24248,29.72496,50.00000,20.00000,4.01570
453.95999,13.43000,     -2.24410,29.68964,50.00000,20.00000,4.01396
454.45300,13.44000,     -2.24535,29.65073,50.00000,20.00000,4.01222
454.94601,13.45000,     -2.24640,29.61298,50.00000,20.00000,4.01048
455.43900,13.46000,     -2.24748,29.59653,50.00000,20.00000,4.00874
455.93100,13.47000,     -2.24841,29.56595,50.00000,20.00000,4.00701
456.42300,13.48000,     -2.24912,29.52936,50.00000,20.00000,4.00528
456.91800,13.49000,     -2.24988,29.48582,50.00000,20.00000,4.00354
457.40900,13.50000,     -2.25043,29.45397,50.00000,20.00000,4.00181
457.90100,13.51000,     -2.25116,29.41738,50.00000,20.00000,4.00008
458.39301,13.52000,     -2.25153,29.37616,50.00000,20.00000,3.99835
458.88400,13.53000,     -2.25179,29.32786,50.00000,20.00000,3.99663
459.37399,13.54000,     -2.25232,29.29602,50.00000,20.00000,3.99491
459.86401,13.55000,     -2.25252,29.26059,50.00000,20.00000,3.99319
460.35599,13.56000,     -2.25251,29.22295,50.00000,20.00000,3.99147
460.84698,13.57000,     -2.25227,29.18520,50.00000,20.00000,3.98975
461.33499,13.58000,     -2.25214,29.15810,50.00000,20.00000,3.98804
461.82800,13.59000,     -2.25211,29.13448,50.00000,20.00000,3.98631
462.31699,13.60000,     -2.25191,29.10854,50.00000,20.00000,3.98460
462.80499,13.61000,     -2.25140,29.07079,50.00000,20.00000,3.98290
463.29700,13.62000,     -2.25097,29.04137,50.00000,20.00000,3.98118
463.78400,13.63000,     -2.25016,29.00837,50.00000,20.00000,3.97948
464.27200,13.64000,     -2.24920,28.97294,50.00000,20.00000,3.97778
464.76501,13.65000,     -2.24847,28.93171,50.00000,20.00000,3.97606
465.25101,13.66000,     -2.24783,28.90229,50.00000,20.00000,3.97436
465.73801,13.67000,     -2.24709,28.87161,50.00000,20.00000,3.97267
466.22699,13.68000,     -2.24623,28.83502,50.00000,20.00000,3.97096
466.71600,13.69000,     -2.24529,28.79263,50.00000,20.00000,3.96926
467.20401,13.70000,     -2.24461,28.76195,50.00000,20.00000,3.96756
467.69199,13.71000,     -2.24352,28.73011,50.00000,20.00000,3.96587
468.17899,13.72000,     -2.24239,28.69478,50.00000,20.00000,3.96417
468.66599,13.73000,     -2.24125,28.65946,50.00000,20.00000,3.96248
469.15302,13.74000,     -2.24002,28.63700,50.00000,20.00000,3.96079
469.64200,13.75000,     -2.23858,28.61106,50.00000,20.00000,3.95910
470.12500,13.76000,     -2.23709,28.58280,50.00000,20.00000,3.95742
470.61301,13.77000,     -2.23558,28.55570,50.00000,20.00000,3.95573
471.10001,13.78000,     -2.23391,28.53567,50.00000,20.00000,3.95404
471.58401,13.79000,     -2.23244,28.50614,50.00000,20.00000,3.95237
472.07001,13.80000,     -2.23125,28.47314,50.00000,20.00000,3.95068
472.55600,13.81000,     -2.23008,28.43550,50.00000,20.00000,3.94900
473.04300,13.82000,     -2.22865,28.40829,50.00000,20.00000,3.94732
473.52802,13.83000,     -2.22723,28.38003,50.00000,20.00000,3.94564
474.01401,13.84000,     -2.22552,28.35062,50.00000,20.00000,3.94397
474.49701,13.85000,     -2.22424,28.31877,50.00000,20.00000,3.94230
474.98401,13.86000,     -2.22317,28.29515,50.00000,20.00000,3.94062
475.46799,13.87000,     -2.22186,28.26921,50.00000,20.00000,3.93895
475.95300,13.88000,     -2.22048,28.23979,50.00000,20.00000,3.93728
476.43701,13.89000,     -2.21931,28.20563,50.00000,20.00000,3.93561
476.92200,13.90000,     -2.21815,28.17843,50.00000,20.00000,3.93394
477.40601,13.91000,     -2.21700,28.14901,50.00000,20.00000,3.93228
477.88901,13.92000,     -2.21609,28.11716,50.00000,20.00000,3.93062
478.37201,13.93000,     -2.21523,28.08300,50.00000,20.00000,3.92896
478.85800,13.94000,     -2.21408,28.05822,50.00000,20.00000,3.92729
479.34201,13.95000,     -2.21274,28.03344,50.00000,20.00000,3.92563
479.82401,13.96000,     -2.21138,28.00634,50.00000,20.00000,3.92397
480.30899,13.97000,     -2.21002,27.97450,50.00000,20.00000,3.92231
480.79300,13.98000,     -2.20845,27.95689,50.00000,20.00000,3.92065
481.27499,13.99000,     -2.20706,27.93802,50.00000,20.00000,3.91900
481.76099,14.00000,     -2.20551,27.90849,50.00000,20.00000,3.91734
482.24500,14.01000,     -2.20388,27.87549,50.00000,20.00000,3.91568
482.72800,14.02000,     -2.20205,27.85071,50.00000,20.00000,3.91403
483.21201,14.03000,     -2.20031,27.82488,50.00000,20.00000,3.91238
483.69299,14.04000,     -2.19860,27.79651,50.00000,20.00000,3.91073
484.18100,14.05000,     -2.19691,27.76467,50.00000,20.00000,3.90907
484.66501,14.06000,     -2.19526,27.75054,50.00000,20.00000,3.90742
485.14700,14.07000,     -2.19347,27.73409,50.00000,20.00000,3.90577
485.62900,14.08000,     -2.19169,27.70931,50.00000,20.00000,3.90413
486.11499,14.09000,     -2.18986,27.68105,50.00000,20.00000,3.90247
486.60001,14.10000,     -2.18812,27.66091,50.00000,20.00000,3.90082
487.08301,14.11000,     -2.18659,27.64088,50.00000,20.00000,3.89918
487.56601,14.12000,     -2.18506,27.61736,50.00000,20.00000,3.89754
488.04999,14.13000,     -2.18354,27.58910,50.00000,20.00000,3.89589
488.53299,14.14000,     -2.18215,27.56781,50.00000,20.00000,3.89425
489.01700,14.15000,     -2.18086,27.54429,50.00000,20.00000,3.89261
489.50101,14.16000,     -2.17944,27.51719,50.00000,20.00000,3.89096
489.98300,14.17000,     -2.17800,27.48651,50.00000,20.00000,3.88933
490.46799,14.18000,     -2.17642,27.46531,50.00000,20.00000,3.88768
490.94901,14.19000,     -2.17462,27.44286,50.00000,20.00000,3.88605
491.43600,14.20000,     -2.17287,27.41934,50.00000,20.00000,3.88440
491.91699,14.21000,     -2.17146,27.39340,50.00000,20.00000,3.88278
492.40201,14.22000,     -2.17008,27.38286,50.00000,20.00000,3.88114
492.88599,14.23000,     -2.16874,27.36388,50.00000,20.00000,3.87950
493.36801,14.24000,     -2.16730,27.33910,50.00000,20.00000,3.87787
493.85501,14.25000,     -2.16606,27.30852,50.00000,20.00000,3.87623
494.33801,14.26000,     -2.16477,27.28849,50.00000,20.00000,3.87460
494.81900,14.27000,     -2.16352,27.26719,50.00000,20.00000,3.87297
495.30600,14.28000,     -2.16203,27.24367,50.00000,20.00000,3.87133
495.79099,14.29000,     -2.16082,27.21773,50.00000,20.00000,3.86970
496.27399,14.30000,     -2.15944,27.19886,50.00000,20.00000,3.86807
496.76099,14.31000,     -2.15815,27.17883,50.00000,20.00000,3.86643
497.24500,14.32000,     -2.15685,27.15647,50.00000,20.00000,3.86480
497.73099,14.33000,     -2.15539,27.12811,50.00000,20.00000,3.86317
498.21600,14.34000,     -2.15416,27.10575,50.00000,20.00000,3.86154
498.70001,14.35000,     -2.15313,27.08097,50.00000,20.00000,3.85991
499.18500,14.36000,     -2.15157,27.05388,50.00000,20.00000,3.85828
499.67200,14.37000,     -2.15040,27.02203,50.00000,20.00000,3.85665
500.15500,14.38000,     -2.14928,27.00084,50.00000,20.00000,3.85503
500.64099,14.39000,     -2.14810,26.97964,50.00000,20.00000,3.85340
501.13000,14.40000,     -2.14697,26.96193,50.00000,20.00000,3.85176
501.61600,14.41000,     -2.14581,26.93831,50.00000,20.00000,3.85014
502.10001,14.42000,     -2.14458,26.92302,50.00000,20.00000,3.84852
502.58499,14.43000,     -2.14333,26.89951,50.00000,20.00000,3.84690
503.07300,14.44000,     -2.14225,26.89360,50.00000,20.00000,3.84526
503.56000,14.45000,     -2.14146,26.88654,50.00000,20.00000,3.84364
504.04599,14.46000,     -2.14065,26.86534,50.00000,20.00000,3.84202
504.53000,14.47000,     -2.13951,26.85005,50.00000,20.00000,3.84040
505.01700,14.48000,     -2.13864,26.82053,50.00000,20.00000,3.83878
505.50500,14.49000,     -2.13778,26.80640,50.00000,20.00000,3.83715
505.99100,14.50000,     -2.13672,26.78405,50.00000,20.00000,3.83553
506.47800,14.51000,     -2.13573,26.76159,50.00000,20.00000,3.83391
506.96301,14.52000,     -2.13487,26.74514,50.00000,20.00000,3.83230
507.45099,14.53000,     -2.13420,26.71804,50.00000,20.00000,3.83067
507.94000,14.54000,     -2.13336,26.70623,50.00000,20.00000,3.82905
508.42599,14.55000,     -2.13247,26.68619,50.00000,20.00000,3.82743
508.91400,14.56000,     -2.13178,26.66500,50.00000,20.00000,3.82581
509.39999,14.57000,     -2.13103,26.64961,50.00000,20.00000,3.82420
509.88599,14.58000,     -2.13027,26.62493,50.00000,20.00000,3.82259
510.37399,14.59000,     -2.12953,26.61312,50.00000,20.00000,3.82097
510.86401,14.60000,     -2.12898,26.59541,50.00000,20.00000,3.81935
511.35001,14.61000,     -2.12834,26.58117,50.00000,20.00000,3.81774
511.83801,14.62000,     -2.12768,26.57063,50.00000,20.00000,3.81612
512.32599,14.63000,     -2.12715,26.54353,50.00000,20.00000,3.81451
512.81500,14.64000,     -2.12659,26.53172,50.00000,20.00000,3.81289
513.30200,14.65000,     -2.12599,26.51169,50.00000,20.00000,3.81129
513.79102,14.66000,     -2.12563,26.49049,50.00000,20.00000,3.80967
514.28003,14.67000,     -2.12522,26.47520,50.00000,20.00000,3.80806
514.76703,14.68000,     -2.12476,26.44810,50.00000,20.00000,3.80645
515.25702,14.69000,     -2.12442,26.43397,50.00000,20.00000,3.80484
515.74402,14.70000,     -2.12434,26.41152,50.00000,20.00000,3.80323
516.23199,14.71000,     -2.12411,26.39148,50.00000,20.00000,3.80163
516.72400,14.72000,     -2.12369,26.37735,50.00000,20.00000,3.80001
517.20898,14.73000,     -2.12339,26.35025,50.00000,20.00000,3.79841
517.70099,14.74000,     -2.12315,26.33960,50.00000,20.00000,3.79679
518.18701,14.75000,     -2.12307,26.32189,50.00000,20.00000,3.79520
518.67603,14.76000,     -2.12301,26.30185,50.00000,20.00000,3.79359
519.16699,14.77000,     -2.12298,26.28772,50.00000,20.00000,3.79198
519.65601,14.78000,     -2.12290,26.26411,50.00000,20.00000,3.79038
520.14502,14.79000,     -2.12272,26.25472,50.00000,20.00000,3.78878
520.63702,14.80000,     -2.12288,26.23353,50.00000,20.00000,3.78716
521.12500,14.81000,     -2.12278,26.20643,50.00000,20.00000,3.78557
521.61499,14.82000,     -2.12272,26.18755,50.00000,20.00000,3.78396
522.10400,14.83000,     -2.12291,26.15687,50.00000,20.00000,3.78236
522.59198,14.84000,     -2.12279,26.14517,50.00000,20.00000,3.78077
523.08600,14.85000,     -2.12293,26.12745,50.00000,20.00000,3.77916
523.57397,14.86000,     -2.12304,26.11332,50.00000,20.00000,3.77756
524.06201,14.87000,     -2.12316,26.10626,50.00000,20.00000,3.77597
524.55499,14.88000,     -2.12337,26.08854,50.00000,20.00000,3.77436
525.04498,14.89000,     -2.12358,26.07789,50.00000,20.00000,3.77277
525.53601,14.90000,     -2.12367,26.06028,50.00000,20.00000,3.77117
526.02502,14.91000,     -2.12378,26.05079,50.00000,20.00000,3.76957
526.51599,14.92000,     -2.12391,26.03319,50.00000,20.00000,3.76798
527.00702,14.93000,     -2.12379,26.02359,50.00000,20.00000,3.76638
527.49701,14.94000,     -2.12419,26.01305,50.00000,20.00000,3.76479
527.98700,14.95000,     -2.12451,25.98953,50.00000,20.00000,3.76320
528.47900,14.96000,     -2.12460,25.98004,50.00000,20.00000,3.76160
528.97198,14.97000,     -2.12482,25.96243,50.00000,20.00000,3.76000
529.46198,14.98000,     -2.12493,25.94472,50.00000,20.00000,3.75841
529.95099,14.99000,     -2.12510,25.93059,50.00000,20.00000,3.75683
530.44598,15.00000,     -2.12545,25.90697,50.00000,20.00000,3.75522
530.93597,15.01000,     -2.12581,25.89516,50.00000,20.00000,3.75364
531.42700,15.02000,     -2.12609,25.87755,50.00000,20.00000,3.75205
531.91998,15.03000,     -2.12635,25.85752,50.00000,20.00000,3.75045
532.41199,15.04000,     -2.12682,25.84455,50.00000,20.00000,3.74886
532.90399,15.05000,     -2.12716,25.82325,50.00000,20.00000,3.74728
533.39801,15.06000,     -2.12749,25.81502,50.00000,20.00000,3.74568
533.88898,15.07000,     -2.12781,25.80205,50.00000,20.00000,3.74410
534.38000,15.08000,     -2.12843,25.78560,50.00000,20.00000,3.74251
534.87201,15.09000,     -2.12886,25.77263,50.00000,20.00000,3.74093
535.36603,15.10000,     -2.12929,25.74902,50.00000,20.00000,3.73934
535.85797,15.11000,     -2.12972,25.73721,50.00000,20.00000,3.73775
536.35199,15.12000,     -2.13028,25.72666,50.00000,20.00000,3.73617
536.84198,15.13000,     -2.13071,25.71717,50.00000,20.00000,3.73459
537.33600,15.14000,     -2.13112,25.70536,50.00000,20.00000,3.73300
537.82703,15.15000,     -2.13172,25.68417,50.00000,20.00000,3.73143
538.32001,15.16000,     -2.13225,25.67594,50.00000,20.00000,3.72984
538.81403,15.17000,     -2.13281,25.66297,50.00000,20.00000,3.72826
539.30701,15.18000,     -2.13346,25.64884,50.00000,20.00000,3.72668
539.79999,15.19000,     -2.13421,25.63819,50.00000,20.00000,3.72510
540.29199,15.20000,     -2.13477,25.61700,50.00000,20.00000,3.72352
540.78802,15.21000,     -2.13540,25.60878,50.00000,20.00000,3.72194
541.27899,15.22000,     -2.13600,25.59929,50.00000,20.00000,3.72037
541.77399,15.23000,     -2.13663,25.57925,50.00000,20.00000,3.71878
542.26599,15.24000,     -2.13727,25.56628,50.00000,20.00000,3.71721
542.76001,15.25000,     -2.13805,25.54509,50.00000,20.00000,3.71563
543.25403,15.26000,     -2.13843,25.54034,50.00000,20.00000,3.71406
543.74701,15.27000,     -2.13889,25.52031,50.00000,20.00000,3.71249
544.24298,15.28000,     -2.13947,25.51683,50.00000,20.00000,3.71091
544.73499,15.29000,     -2.13979,25.49553,50.00000,20.00000,3.70934
545.22900,15.30000,     -2.14031,25.48267,50.00000,20.00000,3.70777
545.72302,15.31000,     -2.14078,25.45546,50.00000,20.00000,3.70619
546.21698,15.32000,     -2.14119,25.43669,50.00000,20.00000,3.70462
546.71198,15.33000,     -2.14182,25.42372,50.00000,20.00000,3.70305
547.20697,15.34000,     -2.14231,25.40242,50.00000,20.00000,3.70148
547.70203,15.35000,     -2.14309,25.39304,50.00000,20.00000,3.69990
548.19501,15.36000,     -2.14389,25.37775,50.00000,20.00000,3.69834
548.69202,15.37000,     -2.14443,25.36710,50.00000,20.00000,3.69676
549.18402,15.38000,     -2.14473,25.36710,50.00000,20.00000,3.69521
549.67902,15.39000,     -2.14542,25.34939,50.00000,20.00000,3.69364
550.17401,15.40000,     -2.14616,25.34591,50.00000,20.00000,3.69207
550.66998,15.41000,     -2.14672,25.32587,50.00000,20.00000,3.69050
551.16498,15.42000,     -2.14735,25.32113,50.00000,20.00000,3.68894
551.65698,15.43000,     -2.14801,25.29993,50.00000,20.00000,3.68738
552.15503,15.44000,     -2.14858,25.29044,50.00000,20.00000,3.68581
552.64899,15.45000,     -2.14927,25.27515,50.00000,20.00000,3.68425
553.14502,15.46000,     -2.14990,25.26925,50.00000,20.00000,3.68268
553.63898,15.47000,     -2.15059,25.26102,50.00000,20.00000,3.68113
554.13202,15.48000,     -2.15135,25.24331,50.00000,20.00000,3.67957
554.62903,15.49000,     -2.15180,25.23509,50.00000,20.00000,3.67801
555.12598,15.50000,     -2.15274,25.22328,50.00000,20.00000,3.67644
555.61902,15.51000,     -2.15350,25.21505,50.00000,20.00000,3.67489
556.11700,15.52000,     -2.15426,25.20208,50.00000,20.00000,3.67333
556.60999,15.53000,     -2.15493,25.18785,50.00000,20.00000,3.67178
557.10699,15.54000,     -2.15560,25.17730,50.00000,20.00000,3.67022
557.60199,15.55000,     -2.15643,25.15611,50.00000,20.00000,3.66866
558.09698,15.56000,     -2.15741,25.14778,50.00000,20.00000,3.66711
558.59497,15.57000,     -2.15828,25.13249,50.00000,20.00000,3.66555
559.09003,15.58000,     -2.15887,25.12184,50.00000,20.00000,3.66400
559.58398,15.59000,     -2.15974,25.10655,50.00000,20.00000,3.66245
560.08197,15.60000,     -2.16081,25.09590,50.00000,20.00000,3.66089
560.57703,15.61000,     -2.16157,25.07829,50.00000,20.00000,3.65935
561.07300,15.62000,     -2.16227,25.06174,50.00000,20.00000,3.65780
561.56702,15.63000,     -2.16300,25.04993,50.00000,20.00000,3.65625
562.06403,15.64000,     -2.16383,25.03696,50.00000,20.00000,3.65470
562.55902,15.65000,     -2.16484,25.03580,50.00000,20.00000,3.65316
563.05603,15.66000,     -2.16542,25.02283,50.00000,20.00000,3.65161
563.55298,15.67000,     -2.16559,25.01228,50.00000,20.00000,3.65006
564.04901,15.68000,     -2.16636,24.99689,50.00000,20.00000,3.64851
564.54700,15.69000,     -2.16717,24.98160,50.00000,20.00000,3.64696
565.04401,15.70000,     -2.16780,24.96979,50.00000,20.00000,3.64542
565.54102,15.71000,     -2.16843,24.95208,50.00000,20.00000,3.64387
566.03699,15.72000,     -2.16915,24.94385,50.00000,20.00000,3.64233
566.53198,15.73000,     -2.16978,24.92856,50.00000,20.00000,3.64079
567.03003,15.74000,     -2.17044,24.91791,50.00000,20.00000,3.63925
567.52502,15.75000,     -2.17120,24.90262,50.00000,20.00000,3.63771
568.02197,15.76000,     -2.17163,24.89197,50.00000,20.00000,3.63617
568.51898,15.77000,     -2.17233,24.87784,50.00000,20.00000,3.63463
569.01703,15.78000,     -2.17321,24.86846,50.00000,20.00000,3.63309
569.51202,15.79000,     -2.17406,24.85549,50.00000,20.00000,3.63155
570.00897,15.80000,     -2.17465,24.85549,50.00000,20.00000,3.63002
570.50800,15.81000,     -2.17519,24.84379,50.00000,20.00000,3.62847
571.00201,15.82000,     -2.17589,24.82966,50.00000,20.00000,3.62695
571.50000,15.83000,     -2.17661,24.81901,50.00000,20.00000,3.62541
571.99902,15.84000,     -2.17720,24.80129,50.00000,20.00000,3.62387
572.49298,15.85000,     -2.17781,24.79307,50.00000,20.00000,3.62235
572.99298,15.86000,     -2.17845,24.78010,50.00000,20.00000,3.62080
573.48798,15.87000,     -2.17903,24.77303,50.00000,20.00000,3.61928
573.98297,15.88000,     -2.17968,24.76945,50.00000,20.00000,3.61775
574.48199,15.89000,     -2.18021,24.75057,50.00000,20.00000,3.61622
574.98199,15.90000,     -2.18078,24.74235,50.00000,20.00000,3.61468
575.47803,15.91000,     -2.18119,24.72938,50.00000,20.00000,3.61316
575.97498,15.92000,     -2.18164,24.71409,50.00000,20.00000,3.61163
576.47302,15.93000,     -2.18239,24.70228,50.00000,20.00000,3.61010
576.96997,15.94000,     -2.18291,24.68457,50.00000,20.00000,3.60857
577.46600,15.95000,     -2.18341,24.67634,50.00000,20.00000,3.60705
577.96503,15.96000,     -2.18389,24.66337,50.00000,20.00000,3.60552
578.46301,15.97000,     -2.18439,24.65283,50.00000,20.00000,3.60400
578.95898,15.98000,     -2.18495,24.63743,50.00000,20.00000,3.60248
579.45697,15.99000,     -2.18549,24.62805,50.00000,20.00000,3.60096
579.95398,16.00000,     -2.18601,24.61392,50.00000,20.00000,3.59944
580.45099,16.01000,     -2.18633,24.60559,50.00000,20.00000,3.59792
580.95001,16.02000,     -2.18670,24.59505,50.00000,20.00000,3.59639
581.44598,16.03000,     -2.18713,24.59737,50.00000,20.00000,3.59488
581.94299,16.04000,     -2.18731,24.59030,50.00000,20.00000,3.59336
582.44299,16.05000,     -2.18768,24.58208,50.00000,20.00000,3.59184
582.93903,16.06000,     -2.18775,24.56911,50.00000,20.00000,3.59033
583.43597,16.07000,     -2.18796,24.56078,50.00000,20.00000,3.58881
583.93597,16.08000,     -2.18844,24.54781,50.00000,20.00000,3.58729
584.43103,16.09000,     -2.18893,24.53842,50.00000,20.00000,3.58578
584.92798,16.10000,     -2.18909,24.52429,50.00000,20.00000,3.58427
585.42603,16.11000,     -2.18918,24.51016,50.00000,20.00000,3.58276
585.92200,16.12000,     -2.18941,24.49951,50.00000,20.00000,3.58125
586.42200,16.13000,     -2.18973,24.47948,50.00000,20.00000,3.57973
586.91901,16.14000,     -2.18996,24.47126,50.00000,20.00000,3.57823
587.41602,16.15000,     -2.19005,24.45945,50.00000,20.00000,3.57672
587.91199,16.16000,     -2.19011,24.45597,50.00000,20.00000,3.57522
588.41302,16.17000,     -2.19023,24.43941,50.00000,20.00000,3.57370
588.90802,16.18000,     -2.19043,24.43941,50.00000,20.00000,3.57220
589.40399,16.19000,     -2.19045,24.42528,50.00000,20.00000,3.57070
589.90399,16.20000,     -2.19039,24.41822,50.00000,20.00000,3.56919
590.39899,16.21000,     -2.19024,24.40409,50.00000,20.00000,3.56769
590.90002,16.22000,     -2.19025,24.39818,50.00000,20.00000,3.56618
591.39600,16.23000,     -2.19033,24.38163,50.00000,20.00000,3.56468
591.89600,16.24000,     -2.19038,24.37456,50.00000,20.00000,3.56318
592.38898,16.25000,     -2.19025,24.36275,50.00000,20.00000,3.56169
592.88800,16.26000,     -2.19010,24.35685,50.00000,20.00000,3.56019
593.38599,16.27000,     -2.18984,24.34862,50.00000,20.00000,3.55869
593.88501,16.28000,     -2.18946,24.33682,50.00000,20.00000,3.55718
594.38098,16.29000,     -2.18906,24.33218,50.00000,20.00000,3.55569
594.87799,16.30000,     -2.18867,24.31330,50.00000,20.00000,3.55420
595.37299,16.31000,     -2.18832,24.30972,50.00000,20.00000,3.55271
595.87402,16.32000,     -2.18809,24.28968,50.00000,20.00000,3.55121
596.36902,16.33000,     -2.18771,24.28620,50.00000,20.00000,3.54972
596.86902,16.34000,     -2.18691,24.26733,50.00000,20.00000,3.54822
597.36700,16.35000,     -2.18638,24.26374,50.00000,20.00000,3.54673
597.86499,16.36000,     -2.18617,24.24613,50.00000,20.00000,3.54524
598.35999,16.37000,     -2.18563,24.25320,50.00000,20.00000,3.54375
598.85901,16.38000,     -2.18523,24.23896,50.00000,20.00000,3.54226
599.35498,16.39000,     -2.18474,24.23548,50.00000,20.00000,3.54078
599.85101,16.40000,     -2.18423,24.21777,50.00000,20.00000,3.53929
600.34900,16.41000,     -2.18362,24.21429,50.00000,20.00000,3.53781
600.84802,16.42000,     -2.18283,24.19774,50.00000,20.00000,3.53632
601.34601,16.43000,     -2.18214,24.19774,50.00000,20.00000,3.53483
601.84198,16.44000,     -2.18132,24.18361,50.00000,20.00000,3.53335
602.34198,16.45000,     -2.18042,24.17770,50.00000,20.00000,3.53186
602.84003,16.46000,     -2.17967,24.16948,50.00000,20.00000,3.53038
603.33698,16.47000,     -2.17897,24.15651,50.00000,20.00000,3.52890
603.83398,16.48000,     -2.17840,24.14828,50.00000,20.00000,3.52742
604.33002,16.49000,     -2.17767,24.13531,50.00000,20.00000,3.52594
604.82599,16.50000,     -2.17684,24.12698,50.00000,20.00000,3.52447
605.32501,16.51000,     -2.17582,24.11401,50.00000,20.00000,3.52299
605.82300,16.52000,     -2.17531,24.10579,50.00000,20.00000,3.52151
606.31897,16.53000,     -2.17449,24.09398,50.00000,20.00000,3.52004
606.81598,16.54000,     -2.17341,24.09640,50.00000,20.00000,3.51856
607.31299,16.55000,     -2.17226,24.08923,50.00000,20.00000,3.51709
607.80902,16.56000,     -2.17111,24.08101,50.00000,20.00000,3.51562
608.30701,16.57000,     -2.17014,24.06804,50.00000,20.00000,3.51415
608.80298,16.58000,     -2.16949,24.05391,50.00000,20.00000,3.51268
609.29999,16.59000,     -2.16850,24.04326,50.00000,20.00000,3.51121
609.79797,16.60000,     -2.16751,24.02207,50.00000,20.00000,3.50974
610.29401,16.61000,     -2.16655,24.01384,50.00000,20.00000,3.50827
610.79102,16.62000,     -2.16560,24.00087,50.00000,20.00000,3.50680
611.28802,16.63000,     -2.16447,23.99265,50.00000,20.00000,3.50534
611.78601,16.64000,     -2.16328,23.97968,50.00000,20.00000,3.50387
612.28198,16.65000,     -2.16207,23.97145,50.00000,20.00000,3.50241
612.78198,16.66000,     -2.16091,23.95964,50.00000,20.00000,3.50093
613.27600,16.67000,     -2.15986,23.95258,50.00000,20.00000,3.49948
613.77197,16.68000,     -2.15864,23.94193,50.00000,20.00000,3.49802
614.26898,16.69000,     -2.15727,23.93845,50.00000,20.00000,3.49656
614.76501,16.70000,     -2.15612,23.92306,50.00000,20.00000,3.49510
615.26202,16.71000,     -2.15449,23.92306,50.00000,20.00000,3.49364
615.75897,16.72000,     -2.15281,23.91009,50.00000,20.00000,3.49218
616.25403,16.73000,     -2.15128,23.90418,50.00000,20.00000,3.49073
616.75299,16.74000,     -2.15011,23.89596,50.00000,20.00000,3.48926
617.24902,16.75000,     -2.14907,23.88299,50.00000,20.00000,3.48781
617.74298,16.76000,     -2.14786,23.88183,50.00000,20.00000,3.48636
618.24103,16.77000,     -2.14638,23.87244,50.00000,20.00000,3.48491
618.73798,16.78000,     -2.14509,23.86527,50.00000,20.00000,3.48345
619.23499,16.79000,     -2.14397,23.84998,50.00000,20.00000,3.48200
619.73102,16.80000,     -2.14283,23.84176,50.00000,20.00000,3.48055
620.22699,16.81000,     -2.14160,23.82995,50.00000,20.00000,3.47910
620.72400,16.82000,     -2.14001,23.82173,50.00000,20.00000,3.47765
621.21899,16.83000,     -2.13866,23.81108,50.00000,20.00000,3.47620
621.71301,16.84000,     -2.13735,23.80285,50.00000,20.00000,3.47476
622.21100,16.85000,     -2.13590,23.79220,50.00000,20.00000,3.47331
622.70697,16.86000,     -2.13438,23.78514,50.00000,20.00000,3.47187
623.20398,16.87000,     -2.13304,23.77807,50.00000,20.00000,3.47042
623.69897,16.88000,     -2.13168,23.77807,50.00000,20.00000,3.46898
624.19501,16.89000,     -2.13027,23.76278,50.00000,20.00000,3.46754
624.69098,16.90000,     -2.12911,23.75920,50.00000,20.00000,3.46609
625.18597,16.91000,     -2.12786,23.74391,50.00000,20.00000,3.46466
625.68103,16.92000,     -2.12647,23.74623,50.00000,20.00000,3.46322
626.17902,16.93000,     -2.12501,23.72503,50.00000,20.00000,3.46177
626.67297,16.94000,     -2.12345,23.72145,50.00000,20.00000,3.46034
627.16803,16.95000,     -2.12170,23.70257,50.00000,20.00000,3.45890
627.66302,16.96000,     -2.12025,23.70257,50.00000,20.00000,3.45747
628.15698,16.97000,     -2.11892,23.69203,50.00000,20.00000,3.45604
628.65100,16.98000,     -2.11754,23.69677,50.00000,20.00000,3.45461
629.14801,16.99000,     -2.11597,23.68855,50.00000,20.00000,3.45317
629.64301,17.00000,     -2.11459,23.67674,50.00000,20.00000,3.45174
630.13800,17.01000,     -2.11299,23.67210,50.00000,20.00000,3.45031
630.63300,17.02000,     -2.11151,23.65555,50.00000,20.00000,3.44888
631.12799,17.03000,     -2.11017,23.65555,50.00000,20.00000,3.44745
631.62097,17.04000,     -2.10876,23.64374,50.00000,20.00000,3.44603
632.11499,17.05000,     -2.10741,23.63783,50.00000,20.00000,3.44461
632.61102,17.06000,     -2.10595,23.62486,50.00000,20.00000,3.44318
633.10498,17.07000,     -2.10446,23.61896,50.00000,20.00000,3.44175
633.59998,17.08000,     -2.10271,23.60135,50.00000,20.00000,3.44033
634.09302,17.09000,     -2.10138,23.59312,50.00000,20.00000,3.43891
634.58698,17.10000,     -2.09988,23.57889,50.00000,20.00000,3.43749
635.08002,17.11000,     -2.09838,23.57182,50.00000,20.00000,3.43607
635.57202,17.12000,     -2.09691,23.56360,50.00000,20.00000,3.43466
636.06702,17.13000,     -2.09529,23.55422,50.00000,20.00000,3.43324
636.56201,17.14000,     -2.09377,23.55422,50.00000,20.00000,3.43182
637.05499,17.15000,     -2.09205,23.54715,50.00000,20.00000,3.43041
637.54700,17.16000,     -2.09070,23.53766,50.00000,20.00000,3.42900
638.04102,17.17000,     -2.08892,23.53766,50.00000,20.00000,3.42758
638.53101,17.18000,     -2.08726,23.53292,50.00000,20.00000,3.42618
639.02502,17.19000,     -2.08558,23.52701,50.00000,20.00000,3.42476
639.51898,17.20000,     -2.08369,23.51879,50.00000,20.00000,3.42335
640.01001,17.21000,     -2.08175,23.50930,50.00000,20.00000,3.42195
640.50201,17.22000,     -2.08000,23.50107,50.00000,20.00000,3.42054
640.99402,17.23000,     -2.07800,23.48926,50.00000,20.00000,3.41914
641.48602,17.24000,     -2.07610,23.48104,50.00000,20.00000,3.41773
641.97699,17.25000,     -2.07432,23.47039,50.00000,20.00000,3.41633
642.46503,17.26000,     -2.07231,23.46216,50.00000,20.00000,3.41494
642.95898,17.27000,     -2.07001,23.44919,50.00000,20.00000,3.41353
643.44800,17.28000,     -2.06776,23.44097,50.00000,20.00000,3.41214
643.93597,17.29000,     -2.06549,23.42916,50.00000,20.00000,3.41075
644.42297,17.30000,     -2.06324,23.42558,50.00000,20.00000,3.40937
644.91602,17.31000,     -2.06083,23.41387,50.00000,20.00000,3.40797
645.40503,17.32000,     -2.05856,23.41387,50.00000,20.00000,3.40658
645.89398,17.33000,     -2.05606,23.39974,50.00000,20.00000,3.40519
646.38300,17.34000,     -2.05369,23.39384,50.00000,20.00000,3.40380
646.86700,17.35000,     -2.05116,23.38445,50.00000,20.00000,3.40242
647.35498,17.36000,     -2.04852,23.37496,50.00000,20.00000,3.40104
647.84302,17.37000,     -2.04580,23.37855,50.00000,20.00000,3.39966
648.32501,17.38000,     -2.04288,23.36790,50.00000,20.00000,3.39829
648.81201,17.39000,     -2.04007,23.36431,50.00000,20.00000,3.39691
649.29498,17.40000,     -2.03700,23.35145,50.00000,20.00000,3.39555
649.78400,17.41000,     -2.03397,23.35145,50.00000,20.00000,3.39416
650.26501,17.42000,     -2.03144,23.34428,50.00000,20.00000,3.39280
650.74701,17.43000,     -2.02856,23.33489,50.00000,20.00000,3.39144
651.22900,17.44000,     -2.02548,23.33131,50.00000,20.00000,3.39008
651.71301,17.45000,     -2.02224,23.31602,50.00000,20.00000,3.38871
652.19501,17.46000,     -2.01892,23.31602,50.00000,20.00000,3.38735
652.67499,17.47000,     -2.01526,23.30189,50.00000,20.00000,3.38600
653.15601,17.48000,     -2.01152,23.29483,50.00000,20.00000,3.38465
653.63702,17.49000,     -2.00805,23.28070,50.00000,20.00000,3.38329
654.11603,17.50000,     -2.00454,23.27479,50.00000,20.00000,3.38194
654.59399,17.51000,     -2.00096,23.27131,50.00000,20.00000,3.38060
655.07501,17.52000,     -1.99788,23.26889,50.00000,20.00000,3.37924
655.55103,17.53000,     -1.99425,23.26182,50.00000,20.00000,3.37791
656.02899,17.54000,     -1.99068,23.25233,50.00000,20.00000,3.37656
656.50500,17.55000,     -1.98720,23.25233,50.00000,20.00000,3.37523
656.97900,17.56000,     -1.98369,23.23820,50.00000,20.00000,3.37389
657.46002,17.57000,     -1.97993,23.23230,50.00000,20.00000,3.37255
657.93201,17.58000,     -1.97622,23.22407,50.00000,20.00000,3.37122
658.40900,17.59000,     -1.97245,23.21110,50.00000,20.00000,3.36988
658.88300,17.60000,     -1.96835,23.20752,50.00000,20.00000,3.36856
659.35303,17.61000,     -1.96456,23.19107,50.00000,20.00000,3.36724
659.82599,17.62000,     -1.96074,23.19107,50.00000,20.00000,3.36592
660.29999,17.63000,     -1.95700,23.17926,50.00000,20.00000,3.36459
660.77002,17.64000,     -1.95322,23.17810,50.00000,20.00000,3.36328
661.24200,17.65000,     -1.94915,23.18042,50.00000,20.00000,3.36196
661.71198,17.66000,     -1.94522,23.16988,50.00000,20.00000,3.36065
662.17999,17.67000,     -1.94142,23.16629,50.00000,20.00000,3.35934
662.65002,17.68000,     -1.93720,23.15332,50.00000,20.00000,3.35803
663.12097,17.69000,     -1.93285,23.15332,50.00000,20.00000,3.35671
663.59003,17.70000,     -1.92936,23.14151,50.00000,20.00000,3.35541
664.05603,17.71000,     -1.92522,23.13561,50.00000,20.00000,3.35411
664.52600,17.72000,     -1.92122,23.12738,50.00000,20.00000,3.35280
664.98798,17.73000,     -1.91718,23.11800,50.00000,20.00000,3.35151
665.45398,17.74000,     -1.91293,23.11800,50.00000,20.00000,3.35022
665.92401,17.75000,     -1.90882,23.10503,50.00000,20.00000,3.34891
666.38702,17.76000,     -1.90477,23.10028,50.00000,20.00000,3.34762
666.85199,17.77000,     -1.90079,23.10028,50.00000,20.00000,3.34633
667.31702,17.78000,     -1.89677,23.08847,50.00000,20.00000,3.34504
667.77600,17.79000,     -1.89246,23.08383,50.00000,20.00000,3.34376
668.24103,17.80000,     -1.88826,23.08025,50.00000,20.00000,3.34247
668.70203,17.81000,     -1.88445,23.06728,50.00000,20.00000,3.34120
669.16400,17.82000,     -1.88005,23.07434,50.00000,20.00000,3.33992
669.62402,17.83000,     -1.87575,23.07782,50.00000,20.00000,3.33864
670.08502,17.84000,     -1.87170,23.06496,50.00000,20.00000,3.33737
670.54199,17.85000,     -1.86770,23.06496,50.00000,20.00000,3.33610
671.00201,17.86000,     -1.86369,23.05072,50.00000,20.00000,3.33483
671.46198,17.87000,     -1.85955,23.04482,50.00000,20.00000,3.33356
671.91998,17.88000,     -1.85531,23.03069,50.00000,20.00000,3.33229
672.37598,17.89000,     -1.85089,23.03544,50.00000,20.00000,3.33103
672.83502,17.90000,     -1.84666,23.02732,50.00000,20.00000,3.32976
673.29303,17.91000,     -1.84256,23.02141,50.00000,20.00000,3.32850
673.74799,17.92000,     -1.83851,23.00844,50.00000,20.00000,3.32724
674.20300,17.93000,     -1.83437,23.00254,50.00000,20.00000,3.32599
674.65900,17.94000,     -1.83025,22.99431,50.00000,20.00000,3.32473
675.11298,17.95000,     -1.82617,22.98366,50.00000,20.00000,3.32348
675.56702,17.96000,     -1.82191,22.99421,50.00000,20.00000,3.32223
676.02100,17.97000,     -1.81766,22.98482,50.00000,20.00000,3.32098
676.46997,17.98000,     -1.81385,22.98008,50.00000,20.00000,3.31975
676.92297,17.99000,     -1.80956,22.97660,50.00000,20.00000,3.31850
677.37598,18.00000,     -1.80532,22.96247,50.00000,20.00000,3.31725
677.82800,18.01000,     -1.80097,22.96247,50.00000,20.00000,3.31601
678.27899,18.02000,     -1.79699,22.95888,50.00000,20.00000,3.31477
678.72998,18.03000,     -1.79292,22.94475,50.00000,20.00000,3.31354
679.17902,18.04000,     -1.78871,22.94475,50.00000,20.00000,3.31231
679.62598,18.05000,     -1.78466,22.94475,50.00000,20.00000,3.31108
680.07898,18.06000,     -1.78059,22.94117,50.00000,20.00000,3.30984
680.52698,18.07000,     -1.77643,22.94117,50.00000,20.00000,3.30861
680.97498,18.08000,     -1.77237,22.94475,50.00000,20.00000,3.30738
681.42102,18.09000,     -1.76823,22.94117,50.00000,20.00000,3.30616
681.86700,18.10000,     -1.76434,22.92588,50.00000,20.00000,3.30494
682.31403,18.11000,     -1.76026,22.92588,50.00000,20.00000,3.30372
682.75897,18.12000,     -1.75638,22.91291,50.00000,20.00000,3.30250
683.20300,18.13000,     -1.75206,22.91049,50.00000,20.00000,3.30129
683.64899,18.14000,     -1.74788,22.91755,50.00000,20.00000,3.30007
684.09399,18.15000,     -1.74391,22.90469,50.00000,20.00000,3.29886
684.53802,18.16000,     -1.73997,22.90469,50.00000,20.00000,3.29764
684.98199,18.17000,     -1.73611,22.90110,50.00000,20.00000,3.29643
685.42499,18.18000,     -1.73219,22.88581,50.00000,20.00000,3.29523
685.86700,18.19000,     -1.72798,22.88581,50.00000,20.00000,3.29402
686.30902,18.20000,     -1.72392,22.87168,50.00000,20.00000,3.29282
686.74902,18.21000,     -1.71993,22.86578,50.00000,20.00000,3.29162
687.19098,18.22000,     -1.71592,22.85281,50.00000,20.00000,3.29042
687.63397,18.23000,     -1.71190,22.84690,50.00000,20.00000,3.28921
688.07098,18.24000,     -1.70777,22.83984,50.00000,20.00000,3.28802
688.51202,18.25000,     -1.70362,22.83035,50.00000,20.00000,3.28682
688.95203,18.26000,     -1.69949,22.83035,50.00000,20.00000,3.28563
689.39001,18.27000,     -1.69567,22.82687,50.00000,20.00000,3.28444
689.82800,18.28000,     -1.69173,22.81506,50.00000,20.00000,3.28325
690.26599,18.29000,     -1.68764,22.81506,50.00000,20.00000,3.28206
690.70502,18.30000,     -1.68337,22.80799,50.00000,20.00000,3.28087
691.14099,18.31000,     -1.67934,22.79850,50.00000,20.00000,3.27969
691.57800,18.32000,     -1.67524,22.79850,50.00000,20.00000,3.27850
692.01599,18.33000,     -1.67140,22.78680,50.00000,20.00000,3.27732
692.45203,18.34000,     -1.66756,22.78206,50.00000,20.00000,3.27614
692.88599,18.35000,     -1.66354,22.79271,50.00000,20.00000,3.27496
693.31897,18.36000,     -1.65978,22.78438,50.00000,20.00000,3.27379
693.75403,18.37000,     -1.65605,22.77963,50.00000,20.00000,3.27261
694.18903,18.38000,     -1.65264,22.77963,50.00000,20.00000,3.27144

